-0.126061
-0.127473
-0.128603
-0.12997
-0.132866
-0.136241
-0.137467
-0.136705
-0.136661
-0.137546
-0.137588
-0.136593
-0.136087
-0.136631
-0.13768
-0.138515
-0.139365
-0.140834
-0.142268
-0.143073
-0.144492
-0.146973
-0.14953
-0.152457
-0.156294
-0.159643
-0.161059
-0.161653
-0.163683
-0.166873
-0.168771
-0.168969
-0.169486
-0.170841
-0.1718
-0.172879
-0.175518
-0.178759
-0.178338
-0.170586
-0.156645
-0.140843
-0.126226
-0.113072
-0.0988792
-0.0794504
-0.0516936
-0.0178552
0.0145334
0.0385722
0.0527748
0.0573908
0.0513402
0.0331775
0.00267526
-0.0373514
-0.0812083
-0.122241
-0.154917
-0.179151
-0.198593
-0.214932
-0.227589
-0.23717
-0.245952
-0.254217
-0.260217
-0.263024
-0.264253
-0.265327
-0.265657
-0.264788
-0.264113
-0.264276
-0.268495
-0.284429
-0.308754
-0.309046
-0.235347
-0.0394302
0.289928
0.680891
1.00974
1.1784
1.1571
0.985006
0.740647
0.498073
0.300707
0.160669
0.0707304
0.0157302
-0.0193132
-0.043578
-0.0604793
-0.0717258
-0.0791964
-0.0836919
-0.0843467
-0.0811046
-0.0755171
-0.0686511
-0.0599557
-0.0493541
-0.0379913
-0.0254871
-0.0103515
0.00671995
0.0235369
0.0392219
0.0558457
0.0750865
0.0964118
0.119828
0.145931
0.173109
0.198983
0.223806
0.24918
0.274234
0.296378
0.314508
0.32946
0.341077
0.347344
0.347312
0.340324
0.323835
0.29554
0.256544
0.211636
0.165178
0.119511
0.0767376
0.0393389
0.00839616
-0.0171545
-0.0376904
-0.0526655
-0.0626837
-0.0699012
-0.0749928
-0.0776567
-0.0792102
-0.0813132
-0.0840353
-0.0856147
-0.085677
-0.0858439
-0.0863887
-0.0856936
-0.084178
-0.0829308
-0.0815293
-0.0791617
-0.0759323
-0.0726732
-0.070135
-0.0674404
-0.0639242
-0.0603545
-0.0567155
-0.0519928
-0.0467937
-0.0428836
-0.0406323
-0.0387737
-0.0369507
-0.0359866
-0.0352972
-0.0337527
-0.0310408
-0.0284176
-0.0266732
-0.0256616
-0.0261946
-0.0295134
-0.0343801
-0.0383217
-0.0407897
-0.0435807
-0.0473659
-0.0510485
-0.0542411
-0.0582361
-0.0632911
-0.0680431
-0.0721932
-0.0763486
-0.0805744
-0.0846552
-0.0892602
-0.0947193
-0.100141
-0.104585
-0.10943
-0.116043
-0.123001
-0.127983
-0.130804
-0.133327
-0.136367
-0.13872
-0.139781
-0.14068
-0.142487
-0.144907
-0.147152
-0.149062
-0.150365
-0.150576
-0.15035
-0.15075
-0.151553
-0.152282
-0.154176
-0.159221
-0.166529
-0.172841
-0.176316
-0.178229
-0.179973
-0.181222
-0.181967
-0.183359
-0.185673
-0.187487
-0.188315
-0.189157
-0.190422
-0.191467
-0.192746
-0.195217
-0.198621
-0.200805
-0.20112
-0.201536
-0.202171
-0.199126
-0.18914
-0.1743
-0.159485
-0.14713
-0.135514
-0.120779
-0.0989255
-0.0689368
-0.0350781
-0.00607235
0.0122134
0.0202787
0.0200527
0.00979713
-0.0133136
-0.0482445
-0.090765
-0.135796
-0.17791
-0.211999
-0.236764
-0.254809
-0.268335
-0.277688
-0.284297
-0.291048
-0.29859
-0.304746
-0.30866
-0.311691
-0.314205
-0.314896
-0.313672
-0.312042
-0.31362
-0.32461
-0.346545
-0.357812
-0.314036
-0.163753
0.122749
0.500264
0.854414
1.07548
1.11272
0.983845
0.756276
0.507569
0.292658
0.13271
0.0252098
-0.0421768
-0.0839578
-0.112223
-0.133231
-0.147501
-0.155223
-0.158541
-0.158999
-0.15649
-0.151677
-0.145905
-0.13891
-0.12963
-0.118451
-0.106729
-0.0950949
-0.0828644
-0.0693252
-0.0547507
-0.0388611
-0.0202543
0.00139355
0.0243869
0.0479837
0.0726692
0.0988599
0.125053
0.150301
0.175367
0.199141
0.219344
0.235258
0.24768
0.256203
0.258007
0.25037
0.232903
0.205254
0.167225
0.121463
0.0724987
0.0239675
-0.0221852
-0.0639974
-0.0995104
-0.128207
-0.151422
-0.169655
-0.182765
-0.191621
-0.198539
-0.204726
-0.208829
-0.210554
-0.211507
-0.21259
-0.212518
-0.21091
-0.209919
-0.210322
-0.209856
-0.207313
-0.204371
-0.201843
-0.198438
-0.193913
-0.190497
-0.189245
-0.187525
-0.183809
-0.179445
-0.175318
-0.170829
-0.166229
-0.16269
-0.159784
-0.15586
-0.151423
-0.148172
-0.145723
-0.142094
-0.137528
-0.133562
-0.13112
-0.129183
-0.126963
-0.125268
-0.124108
-0.122814
-0.121754
-0.121628
-0.122093
-0.121774
-0.119945
-0.117574
-0.116197
-0.115623
-0.114739
-0.113726
-0.112233
-0.10894
-0.104272
-0.10046
-0.0979738
-0.0953328
-0.0924738
-0.0904305
-0.0887436
-0.0859483
-0.0824065
-0.0799099
-0.0778979
-0.0742472
-0.0694829
-0.0664921
-0.0662289
-0.0662955
-0.0641612
-0.060226
-0.0557592
-0.0507943
-0.0454881
-0.0413823
-0.0387981
-0.0361668
-0.0329893
-0.0303174
-0.028573
-0.0267661
-0.0243672
-0.0224777
-0.021203
-0.0188506
-0.0147436
-0.00988269
-0.00497322
-0.00044157
0.00297603
0.00428677
0.00368927
0.00345801
0.00573527
0.0124954
0.0243615
0.0398577
0.0553754
0.0682607
0.0808898
0.0994976
0.127669
0.162683
0.198266
0.227928
0.247384
0.255799
0.25404
0.242546
0.219724
0.184484
0.140772
0.096932
0.0601212
0.0321536
0.0113534
-0.0038488
-0.0152717
-0.0254422
-0.0352678
-0.0434248
-0.0492442
-0.0538896
-0.0584861
-0.0614299
-0.0614823
-0.0600641
-0.0587979
-0.0578878
-0.0603605
-0.0750416
-0.103814
-0.120334
-0.0760883
0.0814515
0.384004
0.786309
1.1663
1.4012
1.4365
1.29914
1.0661
0.815435
0.600065
0.442442
0.340076
0.277706
0.239719
0.216278
0.201847
0.192836
0.187771
0.187161
0.191278
0.198781
0.208376
0.219712
0.232009
0.244253
0.257147
0.271248
0.285085
0.297461
0.308818
0.321605
0.337157
0.354706
0.373825
0.395279
0.419555
0.444658
0.468613
0.491581
0.514406
0.536153
0.555159
0.570936
0.583187
0.590847
0.593136
0.589571
0.578628
0.557059
0.523122
0.479073
0.428406
0.37413
0.319546
0.268613
0.223775
0.184692
0.150575
0.121568
0.0972129
0.0758327
0.0567211
0.0411939
0.0299832
0.0211589
0.0130141
0.00580113
-0.00052233
-0.00740971
-0.0153642
-0.0231269
-0.0300134
-0.0367005
-0.0430688
-0.0481051
-0.0522746
-0.0575944
-0.0647394
-0.071903
-0.077838
-0.0831151
-0.0881789
-0.0921447
-0.0945486
-0.0970368
-0.101351
-0.106974
-0.112623
-0.118913
-0.126229
-0.133054
-0.138367
-0.143493
-0.149927
-0.15702
-0.163805
-0.170433
-0.176857
-0.182005
-0.185801
-0.190225
-0.195565
-0.199893
-0.202623
-0.205381
-0.209465
-0.214257
-0.218983
-0.224107
-0.229605
-0.233781
-0.23608
-0.238304
-0.241141
-0.24284
-0.242614
-0.242542
-0.243889
-0.245628
-0.246761
-0.24832
-0.251213
-0.254254
-0.256018
-0.256988
-0.258138
-0.259056
-0.259976
-0.262365
-0.266448
-0.270373
-0.272551
-0.273508
-0.274067
-0.274179
-0.274552
-0.276378
-0.279491
-0.281865
-0.282605
-0.28334
-0.285159
-0.286423
-0.284461
-0.277785
-0.266628
-0.252304
-0.237813
-0.22521
-0.212598
-0.194962
-0.168619
-0.135299
-0.101767
-0.0748382
-0.0580303
-0.0527817
-0.0586392
-0.0743348
-0.100157
-0.136543
-0.180129
-0.223493
-0.260211
-0.288388
-0.308663
-0.322132
-0.331548
-0.340314
-0.349774
-0.358395
-0.364933
-0.370171
-0.374818
-0.37739
-0.3768
-0.374176
-0.371508
-0.36969
-0.371792
-0.386018
-0.414206
-0.43135
-0.390267
-0.2397
0.0529558
0.447493
0.825329
1.06515
1.10998
0.980178
0.748224
0.493813
0.273568
0.111603
0.00501956
-0.0619342
-0.104188
-0.13105
-0.148421
-0.160855
-0.170612
-0.176271
-0.176104
-0.171613
-0.16503
-0.156457
-0.145755
-0.134614
-0.123677
-0.111361
-0.0965009
-0.0800717
-0.0636947
-0.0474266
-0.0301119
-0.011825
0.00677286
0.0264716
0.0475532
0.0687271
0.0892889
0.11049
0.132521
0.152871
0.169829
0.183781
0.195335
0.202804
0.20469
0.20147
0.192328
0.174129
0.145142
0.107341
0.0646935
0.0193864
-0.0262875
-0.0680033
-0.102854
-0.131316
-0.154886
-0.173065
-0.185036
-0.192627
-0.198266
-0.202114
-0.203684
-0.204354
-0.205903
-0.208068
-0.209017
-0.208294
-0.206436
-0.20289
-0.197398
-0.191402
-0.185746
-0.179779
-0.173424
-0.167946
-0.162853
-0.156047
-0.146083
-0.134192
-0.122401
-0.111322
-0.100424
-0.0897443
-0.0798244
-0.0698801
-0.0594254
-0.0495111
-0.0407419
-0.0319998
-0.0222733
-0.0127624
-0.00476327
0.00246107
0.00936918
0.014936
0.0194991
0.0249164
0.0311331
0.0356709
0.0379149
0.039272
0.0408899
0.0425711
0.0443507
0.0473272
0.0516229
0.0555276
0.0587534
0.0624052
0.0674225
0.0737838
0.0811391
0.0893708
0.0977658
0.104792
0.110301
0.115929
0.122497
0.128656
0.133333
0.137262
0.141528
0.14516
0.146541
0.145746
0.143696
0.14024
0.135689
0.131195
0.127139
0.122707
0.117491
0.112713
0.108992
0.104534
0.0978845
0.0906504
0.0838257
0.0757142
0.0656113
0.0548887
0.0448918
0.035454
0.0261288
0.0169014
0.00776224
-0.00188063
-0.0119536
-0.0193137
-0.0203651
-0.0158565
-0.00953474
-0.00370486
0.00244854
0.0109454
0.0237296
0.0429891
0.0680393
0.0920213
0.107451
0.113116
0.109963
0.096342
0.0703049
0.0320084
-0.0150663
-0.0657961
-0.114982
-0.156938
-0.188724
-0.21188
-0.229139
-0.241773
-0.251224
-0.261199
-0.273339
-0.285498
-0.294965
-0.302268
-0.308206
-0.311795
-0.312924
-0.313635
-0.315311
-0.320809
-0.336117
-0.359478
-0.362912
-0.299072
-0.118862
0.194575
0.577851
0.91216
1.09748
1.09592
0.936841
0.69367
0.442692
0.232763
0.0800667
-0.020263
-0.0824133
-0.121673
-0.148676
-0.167969
-0.181574
-0.191073
-0.19713
-0.198971
-0.196435
-0.191515
-0.186092
-0.180006
-0.172031
-0.16233
-0.152059
-0.14126
-0.129113
-0.115881
-0.101698
-0.0857554
-0.0673792
-0.0468278
-0.0250169
-0.00213544
0.0217849
0.0457791
0.0692912
0.0931113
0.11702
0.139027
0.157818
0.173579
0.185863
0.192519
0.191794
0.182784
0.1645
0.135766
0.0972673
0.0528119
0.0071292
-0.0374432
-0.0798695
-0.117655
-0.148454
-0.171912
-0.189006
-0.20014
-0.206409
-0.210245
-0.213715
-0.216982
-0.219248
-0.22142
-0.22417
-0.226049
-0.226105
-0.225452
-0.225731
-0.227228
-0.228741
-0.229769
-0.230247
-0.22944
-0.227087
-0.224871
-0.224508
-0.225018
-0.224782
-0.224664
-0.225952
-0.227448
-0.227225
-0.225494
-0.224087
-0.223217
-0.222411
-0.221915
-0.221428
-0.220172
-0.218961
-0.219321
-0.221051
-0.222436
-0.222417
-0.221589
-0.220575
-0.219497
-0.218877
-0.219818
-0.222365
-0.224575
-0.225241
-0.226051
-0.228418
-0.230817
-0.231767
-0.23207
-0.232063
-0.230851
-0.228564
-0.227786
-0.229436
-0.231338
-0.231865
-0.231752
-0.232324
-0.232683
-0.231788
-0.230671
-0.230919
-0.231875
-0.232167
-0.232224
-0.232621
-0.232856
-0.232305
-0.231367
-0.230599
-0.229725
-0.22835
-0.226953
-0.226212
-0.226166
-0.226604
-0.227768
-0.229584
-0.230722
-0.23008
-0.228847
-0.228828
-0.229633
-0.230183
-0.230939
-0.231896
-0.230542
-0.224025
-0.21168
-0.196039
-0.180603
-0.167213
-0.154866
-0.140235
-0.11867
-0.08867
-0.0554475
-0.0271604
-0.00746848
0.00357461
0.00479256
-0.00559621
-0.028302
-0.0622346
-0.103932
-0.148313
-0.189117
-0.221368
-0.244834
-0.261531
-0.272794
-0.279748
-0.284495
-0.289128
-0.293709
-0.297468
-0.300939
-0.304381
-0.306795
-0.307049
-0.305826
-0.303739
-0.300362
-0.299552
-0.307977
-0.318302
-0.2971
-0.197454
0.0243096
0.366081
0.743333
1.03544
1.15901
1.09951
0.90652
0.658239
0.421695
0.233587
0.10242
0.0191547
-0.0315364
-0.0631877
-0.0838666
-0.0974542
-0.10708
-0.115068
-0.120266
-0.120596
-0.11633
-0.109178
-0.0998012
-0.0890171
-0.0787722
-0.0695056
-0.058924
-0.0453502
-0.0295664
-0.0134588
0.00302703
0.0213397
0.0419433
0.0650189
0.0913889
0.120399
0.149759
0.178014
0.205781
0.233553
0.259086
0.279842
0.29642
0.310558
0.321435
0.3262
0.322684
0.309408
0.284988
0.249252
0.205601
0.15884
0.111271
0.0639452
0.0196667
-0.0187533
-0.0506945
-0.0768756
-0.0977134
-0.113083
-0.12433
-0.133708
-0.140927
-0.144617
-0.146203
-0.147575
-0.148378
-0.147385
-0.145258
-0.142527
-0.137825
-0.131347
-0.126
-0.123299
-0.121231
-0.117742
-0.11331
-0.109401
-0.105406
-0.10056
-0.0955049
-0.0912455
-0.0876475
-0.0842776
-0.081373
-0.0793922
-0.0771305
-0.073453
-0.0700164
-0.0688737
-0.0690864
-0.0681537
-0.0656801
-0.0636376
-0.0627627
-0.0621118
-0.0619953
-0.0631257
-0.0647009
-0.0649904
-0.0641734
-0.0639597
-0.0637888
-0.0620499
-0.0595156
-0.0579266
-0.0569809
-0.0556452
-0.0544055
-0.0540348
-0.0541745
-0.0537571
-0.0529649
-0.0522092
-0.0503717
-0.046738
-0.042703
-0.0404261
-0.0397834
-0.0396947
-0.0401402
-0.0412527
-0.041341
-0.0389732
-0.0353979
-0.0324636
-0.0306604
-0.0292202
-0.0282177
-0.0277972
-0.0266117
-0.0231454
-0.0179017
-0.0123417
-0.00707775
-0.00184792
0.00276992
0.00584542
0.00876534
0.0132069
0.017946
0.021837
0.026306
0.0332577
0.0433728
0.0565204
0.0717536
0.0870011
0.100432
0.113719
0.132242
0.160488
0.196742
0.234023
0.26508
0.28633
0.297113
0.297343
0.286843
0.264854
0.231586
0.19081
0.149005
0.112566
0.0840002
0.0622435
0.0460994
0.0352632
0.0276974
0.0208444
0.0150735
0.0114663
0.00941678
0.00840264
0.00898271
0.0113149
0.0139679
0.015787
0.0168671
0.0148884
0.0023992
-0.0234331
-0.0404059
-0.00319815
0.140115
0.426332
0.820464
1.20653
1.45922
1.51589
1.39422
1.16698
0.913907
0.692182
0.527319
0.417806
0.348907
0.305422
0.277945
0.261238
0.250152
0.241949
0.237841
0.238923
0.242924
0.247178
0.252409
0.260285
0.270691
0.28227
0.294727
0.308422
0.322475
0.335707
0.34882
0.36356
0.380496
0.399663
0.421933
0.448152
0.476785
0.505053
0.531558
0.556094
0.577838
0.59631
0.612213
0.626182
0.636579
0.641275
0.639432
0.629423
0.607928
0.573748
0.530405
0.482787
0.433502
0.38389
0.336427
0.293954
0.2569
0.224848
0.198519
0.17816
0.162084
0.148153
0.136471
0.128067
0.122519
0.118823
0.116384
0.114389
0.111909
0.108668
0.105959
0.104261
0.10205
0.0979108
0.0925574
0.0878627
0.0843011
0.0810335
0.078037
0.0756218
0.072312
0.067492
0.0631175
0.0607394
0.059258
0.0568238
0.054033
0.0517287
0.0490406
0.0449813
0.0409443
0.0380434
0.0347755
0.030025
0.0250811
0.0210782
0.0169872
0.0112198
0.004466
-0.00131642
-0.00656767
-0.0127056
-0.0191833
-0.0250391
-0.0312365
-0.039395
-0.0480353
-0.0540812
-0.0580817
-0.0629479
-0.0694324
-0.0759477
-0.0818325
-0.0876295
-0.0932907
-0.0989297
-0.106272
-0.11571
-0.124876
-0.131521
-0.135944
-0.140401
-0.145572
-0.150827
-0.156071
-0.161705
-0.167458
-0.172044
-0.174983
-0.176867
-0.177093
-0.173609
-0.165361
-0.154286
-0.144037
-0.13677
-0.130361
-0.119917
-0.100221
-0.0697875
-0.0341498
-0.00266963
0.0185031
0.0286008
0.0284221
0.0180135
-0.00365068
-0.0376548
-0.0820864
-0.131223
-0.176843
-0.213455
-0.240948
-0.261727
-0.276959
-0.286949
-0.293757
-0.300287
-0.308096
-0.316227
-0.323773
-0.331084
-0.337313
-0.340868
-0.342175
-0.343024
-0.343875
-0.348269
-0.366091
-0.397711
-0.412775
-0.35921
-0.182337
0.141024
0.548044
0.908845
1.10929
1.10841
0.943266
0.695401
0.441112
0.227444
0.0713502
-0.0307948
-0.0935572
-0.132791
-0.158881
-0.176369
-0.187712
-0.195673
-0.200172
-0.199683
-0.195706
-0.190653
-0.18443
-0.175854
-0.165233
-0.153524
-0.140636
-0.12611
-0.110783
-0.0956786
-0.0798923
-0.0628792
-0.0447037
-0.0250753
-0.0033184
0.020413
0.0443665
0.0668748
0.0877175
0.107458
0.126362
0.143839
0.15961
0.173699
0.183939
0.1862
0.178626
0.162534
0.13805
0.104881
0.065383
0.0228369
-0.0206243
-0.062788
-0.100946
-0.133079
-0.159139
-0.180501
-0.197771
-0.210307
-0.218711
-0.224728
-0.229229
-0.232039
-0.233894
-0.235748
-0.237373
-0.237829
-0.237643
-0.238067
-0.238896
-0.238438
-0.236317
-0.233612
-0.230198
-0.225471
-0.221053
-0.218707
-0.217779
-0.215921
-0.21279
-0.210149
-0.207628
-0.203235
-0.198025
-0.194331
-0.192693
-0.192476
-0.193225
-0.195005
-0.196402
-0.195826
-0.19419
-0.193295
-0.192904
-0.191777
-0.190299
-0.189584
-0.189456
-0.189458
-0.190235
-0.192059
-0.19378
-0.194099
-0.193202
-0.19239
-0.192361
-0.19282
-0.193738
-0.195314
-0.196665
-0.196543
-0.195694
-0.196015
-0.197521
-0.198542
-0.198147
-0.197098
-0.196282
-0.195089
-0.194084
-0.194313
-0.194031
-0.190735
-0.185099
-0.179801
-0.17539
-0.171208
-0.168078
-0.166712
-0.166068
-0.164251
-0.160858
-0.156759
-0.151976
-0.146185
-0.14076
-0.13554
-0.126292
-0.10977
-0.0887083
-0.0690169
-0.0520444
-0.0338152
-0.0101279
0.0208485
0.0586017
0.0985578
0.132485
0.154681
0.16543
0.167637
0.160941
0.142271
0.112608
0.0779611
0.044011
0.0144523
-0.00793811
-0.022371
-0.0316384
-0.0394422
-0.045998
-0.0499869
-0.0516391
-0.0522724
-0.0522882
-0.0520588
-0.0526372
-0.0546824
-0.0569722
-0.0571859
-0.0548768
-0.0545041
-0.0637867
-0.0833487
-0.0897106
-0.0388154
0.119371
0.414167
0.798011
1.15318
1.36965
1.39929
1.26191
1.0271
0.774021
0.558406
0.401423
0.298395
0.234498
0.194829
0.168205
0.148219
0.133714
0.125997
0.124237
0.125935
0.129334
0.134339
0.140286
0.145969
0.152457
0.161289
0.1719
0.182538
0.193389
0.206428
0.221993
0.238353
0.254915
0.271821
0.28912
0.30774
0.328971
0.353377
0.379406
0.404164
0.42604
0.444782
0.46021
0.472183
0.481053
0.486777
0.487175
0.478684
0.45963
0.431
0.394185
0.350636
0.303268
0.2563
0.213203
0.17569
0.144976
0.121775
0.104911
0.0917523
0.0810814
0.0729881
0.066557
0.0600143
0.0532744
0.0475414
0.0435524
0.0406648
0.0383334
0.0363972
0.0340279
0.0303895
0.0264257
0.0229344
0.0198104
0.0165688
0.0138789
0.0130619
0.013905
0.0148769
0.0155565
0.0166304
0.0182777
0.0198702
0.0221495
0.0264123
0.0316423
0.0352392
0.0376655
0.0409416
0.0452556
0.0487771
0.0504571
0.0513925
0.0515409
0.0494324
0.044854
0.0390287
0.0324021
0.0248658
0.0177301
0.0121922
0.00651522
-0.00190037
-0.012321
-0.0216593
-0.0294641
-0.0375681
-0.0463703
-0.0546373
-0.0621063
-0.0690331
-0.0750545
-0.07973
-0.083947
-0.0894622
-0.0959968
-0.101504
-0.105812
-0.110113
-0.113975
-0.11656
-0.118949
-0.122523
-0.12632
-0.128812
-0.130119
-0.131434
-0.13298
-0.134004
-0.134828
-0.136828
-0.139748
-0.142156
-0.143924
-0.146359
-0.149732
-0.152972
-0.15536
-0.157366
-0.159099
-0.160066
-0.159536
-0.155389
-0.144806
-0.129003
-0.113972
-0.102822
-0.091628
-0.0745345
-0.0491513
-0.0174436
0.0157777
0.0440188
0.0615946
0.0661148
0.05905
0.0420681
0.0140934
-0.0251614
-0.0710525
-0.116277
-0.15634
-0.190371
-0.217733
-0.237844
-0.252028
-0.26322
-0.273135
-0.281808
-0.290585
-0.300944
-0.311031
-0.3183
-0.322808
-0.326244
-0.329539
-0.331131
-0.330088
-0.331831
-0.343831
-0.358035
-0.340976
-0.246664
-0.0310149
0.303916
0.672654
0.956337
1.07545
1.01673
0.825758
0.577093
0.338997
0.150608
0.0193605
-0.0656434
-0.118855
-0.151951
-0.173989
-0.190504
-0.202508
-0.209448
-0.212265
-0.212501
-0.210377
-0.205256
-0.197877
-0.189963
-0.181735
-0.172142
-0.161604
-0.151511
-0.141116
-0.128346
-0.112918
-0.0960227
-0.0775348
-0.0563628
-0.0333269
-0.00979753
0.0149016
0.041814
0.0693464
0.0943529
0.115507
0.133873
0.149658
0.161254
0.168064
0.169796
0.164289
0.148713
0.122521
0.0874447
0.0447552
-0.0034272
-0.0524882
-0.0978104
-0.137943
-0.173631
-0.204415
-0.228756
-0.247292
-0.262182
-0.27473
-0.284572
-0.292047
-0.298287
-0.302929
-0.304621
-0.304085
-0.303444
-0.303392
-0.30286
-0.301415
-0.299608
-0.297059
-0.292213
-0.285956
-0.281241
-0.278006
-0.273973
-0.269374
-0.266267
-0.264434
-0.262291
-0.259348
-0.256223
-0.253774
-0.252162
-0.251635
-0.252333
-0.252983
-0.251584
-0.248146
-0.245063
-0.243422
-0.242014
-0.239879
-0.237635
-0.236313
-0.235841
-0.235765
-0.236385
-0.237539
-0.238169
-0.238098
-0.237984
-0.237915
-0.237238
-0.235738
-0.234337
-0.233308
-0.231446
-0.228705
-0.226865
-0.22673
-0.227017
-0.226396
-0.225095
-0.223556
-0.221635
-0.219899
-0.218858
-0.217784
-0.215241
-0.211826
-0.209475
-0.208116
-0.205731
-0.202171
-0.198971
-0.196218
-0.192749
-0.188806
-0.185301
-0.182727
-0.180679
-0.178706
-0.177245
-0.17549
-0.171524
-0.165439
-0.159534
-0.154695
-0.149942
-0.145806
-0.143111
-0.140681
-0.135731
-0.125848
-0.110383
-0.0904438
-0.0690846
-0.0503682
-0.0346443
-0.0165346
0.00989496
0.0448228
0.0826699
0.116491
0.141345
0.156812
0.163833
0.162388
0.151151
0.12754
0.0924072
0.0524011
0.0160167
-0.0122749
-0.0333429
-0.0492634
-0.0600809
-0.0660995
-0.0695247
-0.0730716
-0.0777464
-0.0831877
-0.08882
-0.092644
-0.0923949
-0.089131
-0.0854451
-0.0818223
-0.0765141
-0.0715753
-0.0751602
-0.0911283
-0.0998386
-0.0587285
0.0824615
0.361632
0.748242
1.13109
1.38718
1.45176
1.33703
1.11153
0.855824
0.629777
0.460963
0.349322
0.280156
0.237685
0.211715
0.195558
0.1845
0.175529
0.168523
0.164779
0.164751
0.168159
0.174851
0.183489
0.192185
0.200936
0.210634
0.221195
0.231198
0.241432
0.254696
0.271226
0.288827
0.307007
0.327213
0.350271
0.37532
0.401429
0.428127
0.454557
0.478996
0.500832
0.520064
0.535973
0.547743
0.553914
0.552619
0.54172
0.518534
0.483304
0.439993
0.392205
0.341311
0.289886
0.242191
0.200317
0.163317
0.130963
0.104683
0.0848195
0.0696295
0.0580181
0.0502467
0.0451898
0.0411897
0.0382222
0.0373462
0.0382722
0.0389777
0.0384683
0.0378326
0.0381114
0.0391226
0.0407767
0.0431962
0.0451477
0.0451188
0.0436844
0.0425736
0.0425142
0.0427675
0.0433244
0.0453375
0.0484656
0.0511963
0.0526839
0.0539778
0.056253
0.0587705
0.0611205
0.0643173
0.0676843
0.0694051
0.0695189
0.0699824
0.0711266
0.0716846
0.071605
0.0719503
0.0728405
0.073107
0.0730001
0.0739176
0.0756344
0.076591
0.0766917
0.0772265
0.0784143
0.0792833
0.0798551
0.0814884
0.0841219
0.0861902
0.0876562
0.0901643
0.0939495
0.0975269
0.10056
0.103829
0.106578
0.107361
0.106905
0.107042
0.106951
0.104859
0.101638
0.099637
0.0996045
0.100743
0.102612
0.105139
0.107562
0.108691
0.108529
0.108538
0.109651
0.110881
0.111171
0.111093
0.11172
0.113676
0.118073
0.126747
0.13975
0.154378
0.167725
0.180503
0.196404
0.218223
0.247593
0.283869
0.320883
0.349733
0.366284
0.371877
0.368036
0.353984
0.32758
0.28955
0.243951
0.196317
0.152843
0.117532
0.090384
0.0690717
0.0514548
0.0370386
0.0249109
0.01303
0.000952587
-0.0106334
-0.0218834
-0.0331104
-0.0434596
-0.0520549
-0.0588731
-0.0647279
-0.0707539
-0.0805416
-0.102439
-0.139481
-0.167908
-0.138213
0.00623953
0.300167
0.699818
1.08233
1.3219
1.35814
1.21256
0.963502
0.694512
0.462013
0.289249
0.174198
0.101412
0.0526003
0.0154724
-0.0132832
-0.0341045
-0.0483473
-0.0569116
-0.0601197
-0.0602387
-0.0609047
-0.0630292
-0.0649177
-0.0649878
-0.0626269
-0.0571438
-0.0476015
-0.0358867
-0.0245651
-0.0147451
-0.00554273
0.00443753
0.0153748
0.0275517
0.0425375
0.060515
0.0794303
0.0978516
0.115499
0.13154
0.144734
0.154515
0.162017
0.167496
0.168668
0.162446
0.147258
0.121983
0.0857976
0.0406697
-0.00788765
-0.0555021
-0.100751
-0.142438
-0.17912
-0.210091
-0.236054
-0.258379
-0.27768
-0.293838
-0.306933
-0.316477
-0.321862
-0.324433
-0.327611
-0.333045
-0.338743
-0.34253
-0.34456
-0.345177
-0.343661
-0.340634
-0.339007
-0.33962
-0.340069
-0.338942
-0.337609
-0.336701
-0.33506
-0.332588
-0.330451
-0.328604
-0.326253
-0.324043
-0.323439
-0.324274
-0.324533
-0.323451
-0.322587
-0.322037
-0.320338
-0.317483
-0.315319
-0.314709
-0.314647
-0.314266
-0.314485
-0.315899
-0.316979
-0.317042
-0.31735
-0.318171
-0.318348
-0.317295
-0.316469
-0.316505
-0.31659
-0.31617
-0.315113
-0.313381
-0.311456
-0.309986
-0.309787
-0.310419
-0.309849
-0.307634
-0.305645
-0.304344
-0.302673
-0.300129
-0.2976
-0.29554
-0.292796
-0.288794
-0.284676
-0.281163
-0.277715
-0.274278
-0.27172
-0.269672
-0.266439
-0.261116
-0.254682
-0.248364
-0.24189
-0.23519
-0.228862
-0.222672
-0.21416
-0.201157
-0.184185
-0.16557
-0.147523
-0.130058
-0.111212
-0.0874664
-0.0562221
-0.0201603
0.0135343
0.0385525
0.0539992
0.0612627
0.0593276
0.0453419
0.0179188
-0.0203383
-0.0637099
-0.10522
-0.139108
-0.163697
-0.181134
-0.193639
-0.201993
-0.207487
-0.212748
-0.218915
-0.224342
-0.228266
-0.231613
-0.234068
-0.23463
-0.233656
-0.232191
-0.230237
-0.228003
-0.230114
-0.243905
-0.263712
-0.256307
-0.173236
0.0332224
0.373847
0.774895
1.10916
1.27532
1.24403
1.05938
0.803281
0.550621
0.346337
0.202995
0.111314
0.0548633
0.0203453
-0.000930314
-0.0150419
-0.0254564
-0.0325214
-0.0351921
-0.0339225
-0.0304676
-0.0248853
-0.0162307
-0.00529871
0.00588904
0.0165661
0.0278424
0.0409777
0.0560385
0.0721713
0.0894976
0.10821
0.127435
0.147022
0.168401
0.192245
0.216826
0.240677
0.264497
0.288553
0.311713
0.333003
0.351726
0.366438
0.374915
0.376676
0.372427
0.36081
0.339284
0.308109
0.269994
0.227559
0.183841
0.142819
0.107679
0.0794017
0.0569675
0.0391202
0.0248356
0.0134252
0.00417038
-0.00302614
-0.00686105
-0.007339
-0.0069262
-0.00689065
-0.0054888
-0.00210027
0.00123402
0.00286955
0.00374538
0.00493793
0.00646129
0.00894997
0.0133917
0.019413
0.0250106
0.0290462
0.0324567
0.0358432
0.0380748
0.0396368
0.0425679
0.0470103
0.0516097
0.0561809
0.0612522
0.0667397
0.0713956
0.075134
0.0789652
0.083136
0.0865385
0.0887768
0.0907635
0.0930481
0.0948406
0.0953002
0.0952047
0.0952845
0.0952192
0.0954247
0.0971641
0.100002
0.102265
0.103432
0.104695
0.106517
0.108166
0.109157
0.11015
0.111514
0.112929
0.115014
0.118777
0.123544
0.126823
0.128007
0.129013
0.131236
0.134335
0.137279
0.139786
0.141869
0.142432
0.140459
0.137056
0.133752
0.130423
0.126974
0.124852
0.124539
0.123649
0.120389
0.115728
0.110918
0.105637
0.100142
0.0958091
0.0927042
0.0888422
0.083122
0.0769386
0.0717402
0.0662054
0.0587834
0.0512427
0.0452498
0.0403285
0.0360257
0.0326329
0.0302826
0.0283782
0.0286612
0.0346387
0.04664
0.0598459
0.070119
0.0795074
0.092356
0.111034
0.136844
0.168238
0.198089
0.217981
0.225786
0.224426
0.215046
0.194381
0.160417
0.117227
0.071051
0.0264883
-0.0122152
-0.0421252
-0.0635475
-0.0799202
-0.0935352
-0.104397
-0.113013
-0.120892
-0.128556
-0.13472
-0.138494
-0.141301
-0.145137
-0.14934
-0.152217
-0.153256
-0.154176
-0.160137
-0.174964
-0.182899
-0.144614
-0.0108177
0.253649
0.617734
0.976519
1.2174
1.27992
1.17045
0.950044
0.697434
0.471676
0.298681
0.179633
0.103935
0.0569208
0.0253308
0.0022624
-0.0137148
-0.0239031
-0.0312278
-0.0366535
-0.0388848
-0.0373097
-0.0328041
-0.0261114
-0.0172651
-0.0062284
0.00542328
0.0169383
0.0295095
0.0436347
0.0583162
0.0738466
0.0918646
0.112042
0.132259
0.15202
0.172276
0.193006
0.213306
0.233104
0.252991
0.272423
0.289198
0.302156
0.311958
0.318083
0.31804
0.310448
0.295712
0.273119
0.240746
0.199278
0.152761
0.105833
0.0614673
0.0219934
-0.0100762
-0.0346124
-0.0538418
-0.070241
-0.0842127
-0.0949362
-0.10313
-0.110373
-0.116614
-0.121663
-0.12707
-0.133222
-0.138329
-0.141451
-0.144316
-0.148093
-0.151213
-0.15238
-0.152772
-0.153821
-0.155071
-0.155772
-0.156256
-0.15652
-0.155729
-0.154551
-0.154917
-0.157232
-0.159533
-0.160865
-0.162451
-0.164887
-0.167064
-0.168718
-0.171209
-0.174959
-0.178473
-0.180745
-0.182534
-0.184161
-0.185046
-0.185794
-0.187666
-0.190783
-0.19438
-0.198113
-0.201661
-0.205264
-0.208785
-0.21112
-0.21271
-0.214195
-0.215233
-0.215916
-0.216753
-0.218034
-0.219756
-0.22142
-0.223285
-0.225659
-0.22753
-0.228691
-0.230002
-0.231508
-0.232491
-0.232829
-0.233753
-0.236086
-0.239056
-0.241632
-0.24396
-0.245591
-0.245295
-0.24322
-0.241527
-0.241639
-0.24223
-0.242404
-0.242958
-0.244102
-0.244547
-0.243397
-0.241356
-0.239162
-0.236555
-0.23382
-0.232684
-0.233697
-0.234828
-0.234605
-0.233521
-0.232054
-0.229933
-0.227204
-0.224829
-0.223001
-0.220761
-0.218575
-0.217821
-0.218136
-0.217589
-0.21572
-0.213848
-0.212792
-0.211077
-0.205457
-0.194349
-0.17907
-0.162461
-0.147145
-0.132803
-0.115453
-0.0905074
-0.0576246
-0.0216703
0.0101976
0.033646
0.0483822
0.0532136
0.0463105
0.0274429
-0.00233182
-0.0403837
-0.0812117
-0.117767
-0.145754
-0.165841
-0.179859
-0.188632
-0.193777
-0.197977
-0.202353
-0.205846
-0.2083
-0.21126
-0.214627
-0.216294
-0.215349
-0.212623
-0.209057
-0.204639
-0.203122
-0.212838
-0.231532
-0.228643
-0.156874
0.0308977
0.350595
0.739199
1.0762
1.25859
1.25105
1.08969
0.850312
0.605616
0.402258
0.256274
0.161696
0.10306
0.0661777
0.0430603
0.0288352
0.019937
0.0147197
0.0125539
0.0125162
0.0142136
0.0179491
0.0238346
0.0316499
0.0406059
0.0506145
0.062591
0.0763462
0.0905057
0.105123
0.12153
0.140272
0.160532
0.181372
0.203892
0.229394
0.256726
0.284511
0.31294
0.34189
0.368533
0.390825
0.409128
0.423809
0.434384
0.440238
0.440415
0.432449
0.413324
0.382476
0.342564
0.297078
0.248697
0.19987
0.153929
0.11326
0.0779428
0.0477181
0.0234706
0.00546096
-0.00874554
-0.0210905
-0.0310888
-0.0382233
-0.0433767
-0.0469914
-0.0485305
-0.0484622
-0.0486747
-0.049431
-0.0484746
-0.0448792
-0.0404169
-0.0369316
-0.0342213
-0.030875
-0.0270343
-0.0237873
-0.0212038
-0.0184311
-0.0155036
-0.0129633
-0.0100722
-0.00638967
-0.00309757
-0.000566346
0.00257251
0.00696203
0.0106852
0.012337
0.013083
0.0131392
0.0113042
0.00794864
0.00515249
0.00471068
0.00612041
0.00767427
0.00904365
0.010229
0.0100522
0.00825082
0.00688894
0.00741969
0.00869437
0.00920535
0.00899587
0.00915087
0.00984979
0.0109719
0.0131922
0.0154204
0.0154233
0.0133583
0.0115745
0.0115145
0.0127211
0.0147677
0.0174633
0.0197342
0.0207199
0.0211571
0.0227955
0.0265151
0.0310889
0.0347624
0.0373999
0.0394333
0.040943
0.0418405
0.0422454
0.0424539
0.0424551
0.0420398
0.0421922
0.0434497
0.0442881
0.0439115
0.0429694
0.0416456
0.0400183
0.0390828
0.0399355
0.0416535
0.0420636
0.0401173
0.0371684
0.0352481
0.0342828
0.0330291
0.0316487
0.030771
0.0298583
0.0287025
0.0297671
0.0367513
0.049419
0.0642332
0.0782061
0.0916797
0.107734
0.129928
0.159903
0.194107
0.224007
0.243808
0.253462
0.254178
0.244917
0.223085
0.188772
0.146682
0.102478
0.0611903
0.0268477
0.00116219
-0.0174609
-0.0315375
-0.0417545
-0.0493258
-0.056718
-0.0651518
-0.0738222
-0.0815186
-0.0876814
-0.0925889
-0.0953629
-0.094892
-0.0926712
-0.0920295
-0.0977323
-0.117472
-0.151523
-0.171531
-0.12521
0.0430369
0.35972
0.768026
1.13995
1.35647
1.36969
1.21211
0.964599
0.706458
0.487429
0.325558
0.217774
0.150614
0.108512
0.0797097
0.0577905
0.0408507
0.0284325
0.0197455
0.0142143
0.0120644
0.0126922
0.0149262
0.018625
0.0244809
0.0317367
0.0394298
0.0480568
0.0579745
0.0679449
0.0777908
0.0889666
0.102331
0.117422
0.134314
0.153742
0.174541
0.193972
0.210812
0.226134
0.240905
0.253841
0.26376
0.27146
0.277146
0.279016
0.275611
0.266447
0.250132
0.224199
0.188363
0.145901
0.101272
0.0573454
0.0163844
-0.0190517
-0.0477389
-0.0707077
-0.0900727
-0.107118
-0.121949
-0.135206
-0.146736
-0.154846
-0.159194
-0.161678
-0.163065
-0.162766
-0.161565
-0.161045
-0.161732
-0.162353
-0.161741
-0.160285
-0.158556
-0.156628
-0.154966
-0.154694
-0.155935
-0.156612
-0.155051
-0.152338
-0.150255
-0.149485
-0.149975
-0.151444
-0.153158
-0.153779
-0.153077
-0.153019
-0.154777
-0.15684
-0.158244
-0.159966
-0.162655
-0.165009
-0.166358
-0.168103
-0.170906
-0.17336
-0.174232
-0.174531
-0.17548
-0.176869
-0.17806
-0.179715
-0.182101
-0.184141
-0.184823
-0.184606
-0.184349
-0.18361
-0.181768
-0.180321
-0.180408
-0.180438
-0.179333
-0.178169
-0.177769
-0.17743
-0.177184
-0.177991
-0.17923
-0.178526
-0.175017
-0.170669
-0.167424
-0.164489
-0.161301
-0.158914
-0.157645
-0.155801
-0.15198
-0.14702
-0.142441
-0.138087
-0.133766
-0.130775
-0.12947
-0.128779
-0.127707
-0.126512
-0.125641
-0.123533
-0.119247
-0.11356
-0.105463
-0.0924149
-0.0743079
-0.055318
-0.0380031
-0.0194699
0.00426563
0.0354669
0.074042
0.116385
0.155005
0.183022
0.19949
0.206897
0.204976
0.191218
0.164359
0.127584
0.0870823
0.0481998
0.0144136
-0.0115743
-0.028887
-0.0395791
-0.0466669
-0.0521122
-0.0572166
-0.0630238
-0.0691088
-0.0736294
-0.0755681
-0.0760489
-0.0760726
-0.0750939
-0.0728889
-0.0710225
-0.0742779
-0.0888294
-0.110928
-0.112019
-0.0456723
0.137974
0.458139
0.850708
1.19228
1.3804
1.3786
1.21885
0.975691
0.725696
0.518494
0.370059
0.273797
0.215275
0.180792
0.159369
0.144789
0.135773
0.132256
0.13313
0.137644
0.145494
0.155809
0.167379
0.179563
0.192726
0.207038
0.22204
0.237215
0.253313
0.271703
0.290757
0.308005
0.324184
0.341002
0.358652
0.376533
0.394853
0.413963
0.433093
0.451452
0.469439
0.486655
0.500769
0.510497
0.517445
0.522536
0.52382
0.518649
0.505868
0.485041
0.456016
0.420423
0.381257
0.341762
0.304773
0.272432
0.246893
0.228745
0.215696
0.205388
0.19714
0.190606
0.184387
0.17799
0.173138
0.170908
0.170601
0.170183
0.168469
0.165381
0.161064
0.156368
0.153125
0.15224
0.152334
0.152869
0.154493
0.15661
0.157757
0.157633
0.157175
0.156803
0.156848
0.157673
0.160242
0.164401
0.168752
0.172721
0.176684
0.180545
0.183222
0.184363
0.185184
0.186457
0.187482
0.187824
0.187572
0.186887
0.185213
0.181621
0.177081
0.173135
0.169376
0.164784
0.159735
0.154935
0.150249
0.145754
0.143032
0.142656
0.14297
0.142606
0.142088
0.142202
0.142371
0.142708
0.144777
0.148168
0.150302
0.149653
0.147225
0.144745
0.142704
0.141124
0.140371
0.140052
0.138813
0.136482
0.134273
0.132245
0.129428
0.125339
0.120921
0.117154
0.113809
0.110836
0.108847
0.107281
0.104237
0.0985804
0.091796
0.0861332
0.0818439
0.0785004
0.0764205
0.0749994
0.0726478
0.0688925
0.0653789
0.0648003
0.0691366
0.0786253
0.0910613
0.102497
0.111523
0.12153
0.137743
0.163581
0.196213
0.227141
0.248851
0.258895
0.257279
0.24476
0.221482
0.186614
0.141838
0.0923866
0.0454939
0.00681783
-0.0228503
-0.0456294
-0.0632864
-0.0769085
-0.0883033
-0.0985137
-0.107015
-0.113797
-0.120016
-0.127254
-0.134959
-0.140952
-0.145002
-0.147307
-0.146523
-0.146168
-0.156064
-0.176186
-0.178231
-0.115406
0.0600631
0.363655
0.732918
1.05256
1.22598
1.21827
1.06015
0.822649
0.577323
0.370522
0.219549
0.120868
0.0602947
0.0227056
-0.00182182
-0.0187651
-0.0320305
-0.0431384
-0.0509846
-0.053457
-0.0511918
-0.0461746
-0.0388819
-0.0296017
-0.0201302
-0.011563
-0.00237441
0.00864731
0.0205381
0.032213
0.0450319
0.060378
0.0774256
0.095358
0.114899
0.136444
0.157849
0.177562
0.196829
0.216663
0.235475
0.251256
0.263775
0.273641
0.280413
0.282744
0.27979
0.270127
0.251645
0.223777
0.188402
0.148064
0.104453
0.0596976
0.0170797
-0.020622
-0.0531504
-0.0811676
-0.103817
-0.121043
-0.13453
-0.145055
-0.152533
-0.157979
-0.163386
-0.168735
-0.172036
-0.172502
-0.171595
-0.171929
-0.174136
-0.176617
-0.178916
-0.181405
-0.183102
-0.182943
-0.181917
-0.180874
-0.179093
-0.176496
-0.174163
-0.172791
-0.172169
-0.172082
-0.172922
-0.174649
-0.176008
-0.176277
-0.176667
-0.178417
-0.180614
-0.182219
-0.183732
-0.185905
-0.188453
-0.190463
-0.192003
-0.193403
-0.193761
-0.192831
-0.192067
-0.192761
-0.194277
-0.19497
-0.194576
-0.194109
-0.194187
-0.195001
-0.196834
-0.199367
-0.200828
-0.199916
-0.19797
-0.196968
-0.196934
-0.196686
-0.19585
-0.194744
-0.192932
-0.189739
-0.185813
-0.182413
-0.179371
-0.176023
-0.172594
-0.169961
-0.167599
-0.164112
-0.159472
-0.154368
-0.148764
-0.142902
-0.138627
-0.136734
-0.135185
-0.131991
-0.127552
-0.123148
-0.119127
-0.115474
-0.11261
-0.11039
-0.107139
-0.101829
-0.0960539
-0.0908687
-0.0849919
-0.076179
-0.0631433
-0.0464628
-0.0281102
-0.00984243
0.00872944
0.0301765
0.0582555
0.094385
0.134953
0.171875
0.198807
0.215428
0.222066
0.217779
0.201001
0.171221
0.130834
0.085938
0.0447212
0.0126884
-0.00955505
-0.0248764
-0.0360667
-0.0449911
-0.0535477
-0.0625289
-0.0703503
-0.0752102
-0.0770392
-0.0769911
-0.0754966
-0.0727482
-0.0705189
-0.0694618
-0.0682737
-0.0695547
-0.0809025
-0.0955147
-0.0772279
0.0243686
0.253884
0.60479
0.987353
1.27878
1.3966
1.33107
1.13615
0.890972
0.660722
0.479734
0.354896
0.276255
0.22747
0.195182
0.173184
0.158737
0.148952
0.14187
0.137582
0.13631
0.137194
0.139847
0.145313
0.154157
0.164975
0.176123
0.187287
0.198924
0.210713
0.222375
0.235666
0.252405
0.271428
0.291513
0.312853
0.335874
0.35995
0.384175
0.40839
0.432146
0.454555
0.475209
0.493355
0.507574
0.516336
0.518587
0.51367
0.500878
0.478966
0.447763
0.409546
0.367488
0.323666
0.279695
0.237949
0.201072
0.169935
0.144124
0.123487
0.108226
0.0973376
0.0892681
0.0833826
0.079402
0.0759023
0.0718688
0.0687547
0.0680177
0.0689814
0.0700276
0.0716369
0.0746069
0.0779197
0.0804952
0.0834035
0.0878537
0.0928302
0.0969228
0.10073
0.104743
0.107977
0.10977
0.111455
0.114329
0.117481
0.119716
0.120721
0.121319
0.12154
0.121062
0.12089
0.121923
0.123594
0.125339
0.127448
0.130406
0.133353
0.135094
0.135955
0.1364
0.136162
0.135276
0.13482
0.134629
0.133125
0.129988
0.127044
0.125713
0.124963
0.123341
0.121636
0.121436
0.12263
0.124088
0.126429
0.130251
0.134069
0.136395
0.137527
0.137963
0.137601
0.136448
0.136159
0.138485
0.142435
0.146064
0.148788
0.15022
0.149154
0.145417
0.140889
0.137222
0.134666
0.13273
0.131833
0.132482
0.134017
0.135408
0.136295
0.137358
0.139408
0.143157
0.15069
0.163048
0.17694
0.189258
0.201741
0.218129
0.240872
0.26999
0.302786
0.333435
0.355601
0.36648
0.366694
0.357359
0.337319
0.304909
0.262981
0.218104
0.17616
0.140787
0.113699
0.0945086
0.0802935
0.0679601
0.0567101
0.0465791
0.0369221
0.0277149
0.0201178
0.0144808
0.0100555
0.00608851
0.00343778
0.00316216
0.00191456
-0.00971014
-0.038813
-0.0725524
-0.0711931
0.0189272
0.249352
0.616327
1.02107
1.32686
1.44596
1.37218
1.16448
0.904561
0.660103
0.467922
0.333413
0.244306
0.186208
0.14812
0.121707
0.101553
0.0863021
0.0763293
0.0697087
0.0649282
0.0628287
0.0639087
0.0665021
0.0687038
0.0706534
0.0740546
0.0791154
0.084962
0.0917517
0.100238
0.109711
0.119428
0.130271
0.142926
0.156734
0.171864
0.189438
0.208591
0.226102
0.239863
0.250573
0.259763
0.266939
0.270131
0.268541
0.261848
0.248668
0.227918
0.200459
0.167763
0.129816
0.0863143
0.0401375
-0.00378582
-0.0436136
-0.0794869
-0.109627
-0.132725
-0.150747
-0.16658
-0.180621
-0.192666
-0.203031
-0.212653
-0.221581
-0.228893
-0.234952
-0.241086
-0.246998
-0.252022
-0.257121
-0.263155
-0.268731
-0.2718
-0.272784
-0.273737
-0.275129
-0.275677
-0.275318
-0.275686
-0.277029
-0.278695
-0.281446
-0.285708
-0.289136
-0.289706
-0.289404
-0.290838
-0.293451
-0.295674
-0.297344
-0.299119
-0.301033
-0.303637
-0.307589
-0.312184
-0.315741
-0.317514
-0.318515
-0.319739
-0.321244
-0.322605
-0.323583
-0.324314
-0.324549
-0.323927
-0.323338
-0.324223
-0.325946
-0.32681
-0.32673
-0.326168
-0.324473
-0.321386
-0.319055
-0.319263
-0.321145
-0.322495
-0.323265
-0.324472
-0.324983
-0.323148
-0.320393
-0.319749
-0.321487
-0.32362
-0.324803
-0.325197
-0.324237
-0.32059
-0.313413
-0.302162
-0.286564
-0.268485
-0.252372
-0.239201
-0.224157
-0.202107
-0.172011
-0.137315
-0.103983
-0.0781093
-0.0636082
-0.0612629
-0.0692044
-0.0866882
-0.115667
-0.155343
-0.199915
-0.242085
-0.276956
-0.303585
-0.32256
-0.335339
-0.344247
-0.351434
-0.357504
-0.363017
-0.369091
-0.375535
-0.380051
-0.381098
-0.379798
-0.377683
-0.374344
-0.369178
-0.365737
-0.372701
-0.393183
-0.404982
-0.363122
-0.214849
0.0755477
0.469112
0.846926
1.0868
1.13182
1.00254
0.771272
0.51702
0.295653
0.131432
0.0229286
-0.0436595
-0.0823684
-0.104048
-0.117003
-0.125732
-0.130891
-0.131574
-0.128696
-0.123639
-0.115995
-0.105619
-0.0934798
-0.0801645
-0.0657708
-0.0493322
-0.0310917
-0.0126196
0.00635866
0.0258589
0.045064
0.0644512
0.0855351
0.109049
0.133724
0.157723
0.180763
0.20311
0.223885
0.242433
0.258961
0.273165
0.283362
0.288641
0.289086
0.284926
0.275432
0.259108
0.234749
0.202913
0.164597
0.121719
0.0788224
0.0408084
0.00907251
-0.0172091
-0.0384502
-0.0548785
-0.0675886
-0.0783595
-0.0877716
-0.0950327
-0.100381
-0.104496
-0.106459
-0.10556
-0.103607
-0.102806
-0.102912
-0.102504
-0.101679
-0.101463
-0.101851
-0.101826
-0.101402
-0.101208
-0.10066
-0.0988445
-0.0967952
-0.095917
-0.0956046
-0.0948651
-0.0940228
-0.0942791
-0.0950714
-0.0950608
-0.0948236
-0.0955831
-0.096668
-0.0970073
-0.0973663
-0.0994319
-0.102734
-0.105541
-0.107876
-0.11067
-0.113551
-0.115318
-0.116409
-0.118021
-0.119939
-0.120828
-0.120593
-0.120775
-0.121918
-0.122695
-0.122758
-0.12336
-0.124478
-0.124944
-0.124602
-0.124545
-0.124775
-0.124198
-0.122642
-0.120805
-0.118361
-0.114346
-0.109755
-0.106683
-0.105204
-0.103143
-0.0994012
-0.0944241
-0.0887208
-0.0816745
-0.0739904
-0.0677038
-0.0627455
-0.0577711
-0.0527188
-0.0485764
-0.0457175
-0.0433081
-0.0410212
-0.039127
-0.0375583
-0.0360144
-0.0330031
-0.0255743
-0.0117597
0.00645224
0.0243253
0.0394313
0.0544888
0.0738968
0.0998195
0.131487
0.165422
0.195137
0.214798
0.222771
0.22049
0.208258
0.183785
0.147008
0.103509
0.0615378
0.0262314
-0.00203978
-0.0239572
-0.0394909
-0.0501381
-0.0586039
-0.0663949
-0.0733629
-0.0792936
-0.0842531
-0.0877406
-0.0895145
-0.0907557
-0.0923059
-0.0932021
-0.0911707
-0.0874382
-0.0882522
-0.0979719
-0.102633
-0.0653692
0.0609255
0.31623
0.681165
1.05423
1.31616
1.39927
1.30542
1.09239
0.838091
0.606256
0.429159
0.309068
0.232469
0.18456
0.154871
0.135482
0.120522
0.108662
0.101503
0.0991997
0.100451
0.10387
0.109521
0.117671
0.127347
0.138115
0.150259
0.163202
0.175972
0.189307
0.204242
0.219967
0.234956
0.249281
0.264452
0.280574
0.297151
0.314338
0.332518
0.351093
0.368114
0.382883
0.396153
0.407273
0.415025
0.419063
0.419456
0.41474
0.401749
0.379008
0.348063
0.310736
0.26848
0.225557
0.186924
0.15396
0.125783
0.10229
0.0835381
0.0681722
0.0547843
0.0440285
0.0363962
0.0299922
0.0227953
0.0149394
0.00797573
0.00190566
-0.00456834
-0.0113498
-0.0170759
-0.0217262
-0.0262872
-0.0303629
-0.0330502
-0.0351914
-0.0382693
-0.041612
-0.0441906
-0.0465408
-0.0492971
-0.0516879
-0.0531047
-0.0540939
-0.0546576
-0.0534982
-0.0499748
-0.0460969
-0.0436047
-0.0418423
-0.0397912
-0.037733
-0.0370229
-0.0375407
-0.0379687
-0.0383524
-0.0400424
-0.0435714
-0.0483018
-0.0540712
-0.0612075
-0.0688636
-0.0755995
-0.0816028
-0.0881599
-0.0957046
-0.103592
-0.111735
-0.120397
-0.128081
-0.133114
-0.136581
-0.140396
-0.144706
-0.148097
-0.150509
-0.153275
-0.156407
-0.159329
-0.162472
-0.166099
-0.168913
-0.169864
-0.170101
-0.171606
-0.174691
-0.177478
-0.179185
-0.18059
-0.181633
-0.181629
-0.180811
-0.180543
-0.181378
-0.183086
-0.186151
-0.191
-0.195968
-0.19909
-0.201306
-0.204496
-0.208471
-0.212084
-0.214954
-0.217673
-0.220743
-0.22317
-0.224545
-0.225911
-0.225847
-0.220503
-0.209228
-0.196032
-0.184832
-0.175081
-0.16353
-0.147434
-0.124745
-0.0957825
-0.0663862
-0.044807
-0.0339312
-0.0321128
-0.0391098
-0.0572589
-0.0877364
-0.128683
-0.175206
-0.221146
-0.260682
-0.290051
-0.30969
-0.323185
-0.334114
-0.343874
-0.353029
-0.361776
-0.369418
-0.374953
-0.378913
-0.38286
-0.386638
-0.388926
-0.38938
-0.388568
-0.388226
-0.393669
-0.408086
-0.413475
-0.368221
-0.221968
0.0556426
0.421289
0.765067
0.981316
1.01966
0.895623
0.673416
0.428942
0.216582
0.058007
-0.0481032
-0.113516
-0.153376
-0.17989
-0.198662
-0.210854
-0.21783
-0.221418
-0.221747
-0.217793
-0.210194
-0.20129
-0.192098
-0.18187
-0.170806
-0.159999
-0.149444
-0.138087
-0.125273
-0.111497
-0.0967685
-0.0794438
-0.0593336
-0.0380415
-0.0152073
0.0103909
0.0371645
0.0622427
0.0854202
0.107911
0.129486
0.148908
0.165709
0.179389
0.188017
0.188234
0.178744
0.160215
0.132423
0.0955705
0.0525992
0.00770407
-0.036334
-0.0782925
-0.116077
-0.147459
-0.172569
-0.192806
-0.208465
-0.219534
-0.227354
-0.233062
-0.236459
-0.237516
-0.236764
-0.235064
-0.233232
-0.230528
-0.22668
-0.222812
-0.219232
-0.215283
-0.211055
-0.206836
-0.202061
-0.196389
-0.191099
-0.187306
-0.184429
-0.180943
-0.176222
-0.171516
-0.167228
-0.162833
-0.158295
-0.153849
-0.149425
-0.14452
-0.139496
-0.135884
-0.133749
-0.131614
-0.128926
-0.126198
-0.123366
-0.1198
-0.115984
-0.113428
-0.112576
-0.111917
-0.110394
-0.108047
-0.104477
-0.0989624
-0.0922247
-0.0861955
-0.0810664
-0.0754008
-0.0690388
-0.0632797
-0.0583289
-0.0526387
-0.0464114
-0.0408098
-0.0350721
-0.027888
-0.0198752
-0.0138254
-0.0107997
-0.00898427
-0.00711842
-0.0057029
-0.00515373
-0.00461518
-0.00353676
-0.00320545
-0.00450534
-0.0060939
-0.00753386
-0.00977158
-0.012155
-0.013208
-0.0133548
-0.0140454
-0.0150746
-0.0157255
-0.0174554
-0.0214336
-0.0262887
-0.0297241
-0.0316198
-0.0334479
-0.0351724
-0.0359015
-0.0365569
-0.0388581
-0.0426537
-0.0461754
-0.0492558
-0.0530957
-0.0569557
-0.0575462
-0.0520132
-0.0411497
-0.0280867
-0.0155016
-0.00349962
0.0104223
0.0300248
0.0583606
0.0940541
0.129436
0.156708
0.173945
0.181979
0.180101
0.167568
0.143999
0.109765
0.0682555
0.0265792
-0.00851202
-0.0343256
-0.0522628
-0.0652023
-0.0751224
-0.0837008
-0.0921443
-0.099538
-0.104255
-0.106796
-0.108923
-0.110004
-0.10857
-0.105358
-0.102453
-0.101179
-0.104509
-0.119735
-0.148145
-0.16318
-0.115379
0.0488177
0.356886
0.75617
1.12362
1.34281
1.3649
1.21894
0.982831
0.73412
0.522216
0.365721
0.261939
0.197377
0.156902
0.130294
0.112571
0.10059
0.0920937
0.0864205
0.084368
0.0856728
0.0896014
0.0958706
0.103635
0.111994
0.120504
0.129687
0.140365
0.152178
0.164581
0.178462
0.19532
0.214837
0.235269
0.256508
0.27869
0.300461
0.320885
0.340868
0.361124
0.380576
0.39753
0.411027
0.420686
0.42592
0.425331
0.417815
0.403088
0.380671
0.34988
0.312051
0.270107
0.226493
0.182389
0.138932
0.0984203
0.0623774
0.0311834
0.00577546
-0.0134003
-0.0279053
-0.0403889
-0.0520867
-0.0627241
-0.0722789
-0.0812841
-0.0885736
-0.0925951
-0.0941966
-0.095974
-0.0989554
-0.102485
-0.106953
-0.112795
-0.118769
-0.123474
-0.126908
-0.129696
-0.132185
-0.134339
-0.136314
-0.139081
-0.142669
-0.14684
-0.152258
-0.15902
-0.16596
-0.1715
-0.175572
-0.179557
-0.184047
-0.188152
-0.191737
-0.196438
-0.202328
-0.20749
-0.211634
-0.216344
-0.222078
-0.227829
-0.233189
-0.238711
-0.244774
-0.250783
-0.256509
-0.26271
-0.268878
-0.273236
-0.275978
-0.279515
-0.284474
-0.289334
-0.29331
-0.297183
-0.300633
-0.302702
-0.304769
-0.308734
-0.314309
-0.319265
-0.322024
-0.323665
-0.325386
-0.327561
-0.330076
-0.333031
-0.335804
-0.33767
-0.338816
-0.339449
-0.339714
-0.339453
-0.33886
-0.339202
-0.340981
-0.342831
-0.344088
-0.345658
-0.346492
-0.345023
-0.342901
-0.342582
-0.344294
-0.346092
-0.345115
-0.339367
-0.328528
-0.314088
-0.29947
-0.286799
-0.273643
-0.255174
-0.228454
-0.194972
-0.160529
-0.131706
-0.112441
-0.104316
-0.107323
-0.1216
-0.148625
-0.187812
-0.232812
-0.275382
-0.311108
-0.339746
-0.361942
-0.37743
-0.387432
-0.394606
-0.400796
-0.406187
-0.410399
-0.413795
-0.416603
-0.418332
-0.418891
-0.419253
-0.419255
-0.417183
-0.414049
-0.4169
-0.433733
-0.456799
-0.451516
-0.367783
-0.155032
0.192529
0.589644
0.904999
1.04673
0.998565
0.810155
0.560846
0.320748
0.129632
-0.00397487
-0.089904
-0.143216
-0.176821
-0.199028
-0.214659
-0.224955
-0.229517
-0.229692
-0.227543
-0.223695
-0.217369
-0.208141
-0.197242
-0.185184
-0.171331
-0.156898
-0.143934
-0.131406
-0.116725
-0.0996154
-0.0816351
-0.0627772
-0.0424971
-0.0215853
-0.00140608
0.0182392
0.0392738
0.0618486
0.0837346
0.1026
0.117905
0.130233
0.139625
0.145777
0.148094
0.144844
0.133611
0.113411
0.0853561
0.0511556
0.0125147
-0.0275818
-0.0650695
-0.0979069
-0.126485
-0.15032
-0.167708
-0.178911
-0.186858
-0.193074
-0.197105
-0.199804
-0.202407
-0.204694
-0.205542
-0.204397
-0.201884
-0.199645
-0.198479
-0.197948
-0.197606
-0.19686
-0.194367
-0.190159
-0.186834
-0.18591
-0.186154
-0.186092
-0.185718
-0.185367
-0.184672
-0.18374
-0.183972
-0.185179
-0.185288
-0.184074
-0.183326
-0.184563
-0.18734
-0.189999
-0.192341
-0.194755
-0.19574
-0.194876
-0.193668
-0.19289
-0.192293
-0.192387
-0.193746
-0.19529
-0.195544
-0.194082
-0.191879
-0.189871
-0.187902
-0.18611
-0.185182
-0.184886
-0.184645
-0.184878
-0.186231
-0.188054
-0.18823
-0.186077
-0.183033
-0.180048
-0.176307
-0.171711
-0.168402
-0.167095
-0.16603
-0.1639
-0.161245
-0.158468
-0.154807
-0.149845
-0.145319
-0.142472
-0.140519
-0.138894
-0.137761
-0.136333
-0.133496
-0.130103
-0.12798
-0.12732
-0.126444
-0.124628
-0.12295
-0.121918
-0.121086
-0.12021
-0.120243
-0.121039
-0.120531
-0.11857
-0.11673
-0.1148
-0.111581
-0.106933
-0.101537
-0.0943359
-0.0823413
-0.0643292
-0.0437163
-0.0249026
-0.00749626
0.0127476
0.0391936
0.0725295
0.110637
0.147614
0.174909
0.189388
0.193737
0.189432
0.174301
0.146292
0.108035
0.0652345
0.0225342
-0.0152891
-0.0439527
-0.0626949
-0.0741343
-0.0810266
-0.0850264
-0.0881819
-0.0918167
-0.0954986
-0.0981402
-0.0991057
-0.0987122
-0.0967602
-0.0918624
-0.0844114
-0.0774671
-0.0748867
-0.081659
-0.099721
-0.109885
-0.0695437
0.0710412
0.344899
0.716221
1.07664
1.31498
1.37466
1.26523
1.04793
0.799356
0.577055
0.406649
0.289733
0.216359
0.172511
0.144753
0.12438
0.108761
0.0974016
0.0898549
0.0862405
0.0869249
0.0918695
0.100209
0.110731
0.122926
0.136204
0.149135
0.160602
0.171324
0.182161
0.192592
0.20277
0.214083
0.227321
0.241512
0.255718
0.270803
0.287529
0.304331
0.320298
0.335889
0.350314
0.362483
0.372933
0.382477
0.390423
0.394533
0.392152
0.381826
0.362307
0.332677
0.295109
0.254484
0.214631
0.17705
0.142697
0.113464
0.0903888
0.0714558
0.0542295
0.0382722
0.0231287
0.00836451
-0.00481183
-0.0144435
-0.0208879
-0.0270039
-0.0341327
-0.0419644
-0.0496573
-0.0569424
-0.0638035
-0.0695018
-0.0739888
-0.0781653
-0.082256
-0.0859798
-0.0907235
-0.0975254
-0.104863
-0.110347
-0.113512
-0.116063
-0.118642
-0.120263
-0.121204
-0.122728
-0.124932
-0.126511
-0.127056
-0.128258
-0.131531
-0.135869
-0.139529
-0.14264
-0.145929
-0.149882
-0.155231
-0.162981
-0.172091
-0.179738
-0.184702
-0.189028
-0.19485
-0.201979
-0.209754
-0.218773
-0.228643
-0.237024
-0.242353
-0.245882
-0.249143
-0.252131
-0.255233
-0.259932
-0.266479
-0.272648
-0.276463
-0.279026
-0.282095
-0.286011
-0.290259
-0.295652
-0.301406
-0.305192
-0.307011
-0.309119
-0.312392
-0.316163
-0.32006
-0.324053
-0.327463
-0.32932
-0.330333
-0.332543
-0.336729
-0.340356
-0.341118
-0.340034
-0.33908
-0.338896
-0.339338
-0.341109
-0.344217
-0.347364
-0.34984
-0.352263
-0.354961
-0.356948
-0.357507
-0.358372
-0.360485
-0.362033
-0.361963
-0.361583
-0.36193
-0.36189
-0.359847
-0.354655
-0.344475
-0.32897
-0.311851
-0.297451
-0.284717
-0.26877
-0.245252
-0.214172
-0.180314
-0.150981
-0.130808
-0.120402
-0.119251
-0.127646
-0.147553
-0.18042
-0.222225
-0.264847
-0.301797
-0.330887
-0.351923
-0.365345
-0.373119
-0.378104
-0.381719
-0.383763
-0.384463
-0.385166
-0.386361
-0.387065
-0.386664
-0.385564
-0.383533
-0.378874
-0.371651
-0.367629
-0.374237
-0.384018
-0.36373
-0.267038
-0.0492613
0.29044
0.669637
0.9677
1.10125
1.05572
0.877659
0.641221
0.412993
0.231771
0.106644
0.0268092
-0.0237399
-0.056248
-0.0779817
-0.0932372
-0.103445
-0.10828
-0.107737
-0.103683
-0.097518
-0.0889201
-0.0780763
-0.0669053
-0.056626
-0.0454973
-0.032021
-0.0167841
-0.00041878
0.0174784
0.0360857
0.054384
0.0732902
0.0947242
0.119313
0.145373
0.171006
0.195957
0.220065
0.242374
0.26254
0.281032
0.296806
0.307655
0.31271
0.313297
0.309335
0.297451
0.274554
0.241142
0.200247
0.154514
0.107085
0.0613528
0.0195764
-0.0176444
-0.0506199
-0.0784767
-0.100249
-0.116642
-0.129058
-0.138138
-0.144036
-0.147604
-0.149389
-0.14882
-0.145808
-0.142262
-0.140039
-0.138578
-0.136557
-0.134342
-0.132378
-0.128965
-0.123323
-0.117399
-0.11251
-0.107706
-0.102454
-0.0973719
-0.0929233
-0.0884277
-0.0837554
-0.0807293
-0.0802606
-0.0805856
-0.0800446
-0.0793342
-0.0796896
-0.0803175
-0.0802702
-0.0806464
-0.082094
-0.0825861
-0.0805769
-0.0773877
-0.0746368
-0.0719591
-0.0688804
-0.0664634
-0.0658178
-0.0658649
-0.0648939
-0.0632945
-0.0622925
-0.0617477
-0.0610173
-0.0606639
-0.0610877
-0.0613786
-0.061156
-0.06156
-0.0628263
-0.0633763
-0.0624434
-0.0612398
-0.0608406
-0.0603847
-0.0587195
-0.0566316
-0.055334
-0.0546038
-0.0535178
-0.0522524
-0.0512167
-0.0500479
-0.0484436
-0.0478531
-0.0494898
-0.0519318
-0.0535234
-0.0550068
-0.056984
-0.0585232
-0.0590741
-0.0589589
-0.0579136
-0.0554251
-0.0523152
-0.0505338
-0.0506413
-0.0509051
-0.0503119
-0.0503717
-0.0515388
-0.0529708
-0.0546775
-0.0570489
-0.0599434
-0.0619998
-0.0624248
-0.0621714
-0.0619293
-0.0603896
-0.0552689
-0.0460241
-0.0331513
-0.0181229
-0.00341348
0.0108697
0.0279525
0.0524621
0.0858687
0.122759
0.154348
0.176316
0.188792
0.191184
0.18208
0.161431
0.129605
0.0883847
0.0426656
-0.000706338
-0.035939
-0.0616169
-0.0790462
-0.08977
-0.0964634
-0.102537
-0.109404
-0.116003
-0.121497
-0.126344
-0.130782
-0.133202
-0.13246
-0.130304
-0.128707
-0.127794
-0.131434
-0.149505
-0.182744
-0.202102
-0.156536
0.00809227
0.31898
0.722441
1.09362
1.31421
1.3355
1.18757
0.948116
0.694481
0.477906
0.318317
0.212058
0.144457
0.100614
0.0711686
0.0505822
0.0348953
0.0224133
0.0138986
0.00973025
0.00843296
0.00883858
0.0110586
0.0151727
0.0194927
0.0229918
0.0270956
0.0328526
0.0393787
0.0459366
0.0533255
0.0619838
0.070933
0.0800638
0.0906529
0.103264
0.116649
0.130602
0.14608
0.16215
0.176817
0.189058
0.198757
0.204698
0.205583
0.201689
0.193751
0.180699
0.159159
0.127945
0.0898529
0.0480216
0.00370135
-0.0415575
-0.0846536
-0.122975
-0.155945
-0.183857
-0.206812
-0.225416
-0.241171
-0.255568
-0.268047
-0.27769
-0.285428
-0.292735
-0.299498
-0.304654
-0.308377
-0.311272
-0.312975
-0.313062
-0.312708
-0.313206
-0.314226
-0.315096
-0.316481
-0.318793
-0.321086
-0.322028
-0.321765
-0.321256
-0.319765
-0.317201
-0.315385
-0.315604
-0.316981
-0.318035
-0.318508
-0.318549
-0.318005
-0.316864
-0.316317
-0.317263
-0.31936
-0.321616
-0.323648
-0.325225
-0.325637
-0.324341
-0.322495
-0.322232
-0.323441
-0.324573
-0.325455
-0.326175
-0.326008
-0.32499
-0.324873
-0.326436
-0.328434
-0.329679
-0.329943
-0.329598
-0.328433
-0.326236
-0.32429
-0.323989
-0.324759
-0.325655
-0.326255
-0.326601
-0.325963
-0.323072
-0.319202
-0.317106
-0.316667
-0.315979
-0.314798
-0.313174
-0.310659
-0.307995
-0.306817
-0.306988
-0.306306
-0.303776
-0.300721
-0.298378
-0.296331
-0.293696
-0.29084
-0.28881
-0.288104
-0.288288
-0.288954
-0.289533
-0.28863
-0.286067
-0.283428
-0.2805
-0.2741
-0.261909
-0.245466
-0.228758
-0.213198
-0.196222
-0.175657
-0.15009
-0.117956
-0.0816619
-0.0491735
-0.0265986
-0.0144031
-0.0115109
-0.0186344
-0.0380133
-0.0690747
-0.107422
-0.147833
-0.184815
-0.214207
-0.234946
-0.24895
-0.258958
-0.265992
-0.270521
-0.274018
-0.277807
-0.281463
-0.283958
-0.285186
-0.285167
-0.283353
-0.280298
-0.277568
-0.275838
-0.277772
-0.289361
-0.307637
-0.303432
-0.228639
-0.033516
0.294963
0.6852
1.01345
1.18259
1.16309
0.993351
0.750153
0.50727
0.309008
0.167689
0.0759978
0.0195513
-0.0159255
-0.0405922
-0.0586561
-0.0710016
-0.0782915
-0.0817241
-0.0823993
-0.0807501
-0.0769705
-0.0713122
-0.0630232
-0.0514805
-0.0385017
-0.0265195
-0.0149625
-0.00148696
0.0137728
0.0295177
0.0462764
0.0649469
0.08442
0.103014
0.12131
0.14111
0.162247
0.183355
0.203854
0.223058
0.239054
0.250182
0.257452
0.262926
0.265848
0.263767
0.255763
0.24148
0.218832
0.186687
0.14755
0.106486
0.0679346
0.034226
0.00690612
-0.0140425
-0.0307812
-0.0449219
-0.0558946
-0.0627809
-0.0670462
-0.0703826
-0.0722148
-0.0719619
-0.0706241
-0.0692592
-0.0676195
-0.0652637
-0.0626449
-0.0599359
-0.0564337
-0.0519712
-0.0475636
-0.0437264
-0.0397469
-0.0350358
-0.0302881
-0.0261427
-0.0215815
-0.0164503
-0.0119852
-0.00896984
-0.00664287
-0.00386899
-0.00092717
0.00162401
0.0047189
0.00906415
0.0127375
0.013816
0.0138921
0.0148073
0.0158629
0.0165442
0.0182511
0.0216784
0.0249947
0.0259536
0.0248767
0.0234941
0.0221089
0.0200145
0.0176043
0.0157808
0.0139772
0.0115147
0.00907557
0.00761409
0.00691529
0.00576254
0.00444649
0.00412493
0.00395679
0.00227744
-0.00162723
-0.00278966
-0.00490278
-0.00722242
-0.00862697
-0.0101508
-0.0128554
-0.0160058
-0.0188796
-0.0213715
-0.0236194
-0.0252218
-0.0258515
-0.0263849
-0.0275976
-0.0292809
-0.030591
-0.032089
-0.0342382
-0.0359845
-0.0365006
-0.0367625
-0.0377363
-0.0389165
-0.0395153
-0.0396962
-0.0403935
-0.0412028
-0.0411085
-0.041054
-0.041891
-0.0425712
-0.0424428
-0.0425741
-0.0445259
-0.0478152
-0.050256
-0.0512664
-0.0517572
-0.0515976
-0.048901
-0.0420612
-0.0310398
-0.0172726
-0.00376278
0.00773686
0.0195976
0.036479
0.0612128
0.0922583
0.123376
0.14712
0.16082
0.165441
0.161355
0.147711
0.122263
0.0854578
0.0419569
-0.00109701
-0.0375157
-0.064741
-0.0837737
-0.0970934
-0.106468
-0.113687
-0.119322
-0.123038
-0.125363
-0.128241
-0.132549
-0.136212
-0.137064
-0.135881
-0.134542
-0.133046
-0.132558
-0.139347
-0.155494
-0.158626
-0.105531
0.0511373
0.335862
0.700514
1.03459
1.23575
1.25938
1.12705
0.904939
0.663381
0.451899
0.292991
0.186846
0.120046
0.0769394
0.0480612
0.0288683
0.015926
0.006838
0.000986143
-0.00132985
-0.000271131
0.00342336
0.00997274
0.0191993
0.0283432
0.0353347
0.0416929
0.0500395
0.0607424
0.0726615
0.0857447
0.100454
0.116448
0.133151
0.150757
0.169753
0.189158
0.207801
0.225917
0.244007
0.260996
0.275596
0.287632
0.296783
0.302422
0.304466
0.303201
0.297684
0.285261
0.263825
0.234017
0.198339
0.159521
0.119821
0.0815834
0.0475162
0.0190946
-0.00427976
-0.0235031
-0.0394978
-0.0539683
-0.0679594
-0.0805472
-0.0907901
-0.0994371
-0.107218
-0.113846
-0.118813
-0.122427
-0.126405
-0.131413
-0.136431
-0.141204
-0.146085
-0.149597
-0.150525
-0.150978
-0.154338
-0.159692
-0.163611
-0.164775
-0.164121
-0.162696
-0.161003
-0.159856
-0.159073
-0.15699
-0.153033
-0.148924
-0.146492
-0.144672
-0.141995
-0.139279
-0.138095
-0.13791
-0.137772
-0.138307
-0.140453
-0.143776
-0.146883
-0.149746
-0.153254
-0.15741
-0.161221
-0.164931
-0.168551
-0.170596
-0.170748
-0.171159
-0.173492
-0.177068
-0.180338
-0.182779
-0.184557
-0.185458
-0.185733
-0.18702
-0.190563
-0.194585
-0.196662
-0.197051
-0.197348
-0.197427
-0.196139
-0.194039
-0.192681
-0.191858
-0.190045
-0.188048
-0.187928
-0.189121
-0.189914
-0.190458
-0.191571
-0.192285
-0.19139
-0.189761
