Time,ECG,Stethoscope
0,-0.126061,-0.00546479
0.005,-0.127473,-0.000734628
0.01,-0.128603,4.75E-05
0.015,-0.12997,-0.00460893
0.02,-0.132866,-0.00265022
0.025,-0.136241,-0.00144976
0.03,-0.137467,-0.00335651
0.035,-0.136705,-0.00689076
0.04,-0.136661,-0.00460639
0.045,-0.137546,-0.00257378
0.05,-0.137588,-0.00395187
0.055,-0.136593,-0.00620549
0.06,-0.136087,-0.00518964
0.065,-0.136631,-0.00251307
0.07,-0.13768,-0.000414702
0.075,-0.138515,-0.00268424
0.08,-0.139365,-0.000753688
0.085,-0.140834,-0.00110163
0.09,-0.142268,-0.000829291
0.095,-0.143073,-0.00137507
0.1,-0.144492,-0.00357552
0.105,-0.146973,-0.00305277
0.11,-0.14953,-0.00395334
0.115,-0.152457,-0.00546065
0.12,-0.156294,-0.00235289
0.125,-0.159643,-0.00155089
0.13,-0.161059,-0.00300278
0.135,-0.161653,-0.00536301
0.14,-0.163683,-0.00822134
0.145,-0.166873,-0.0100394
0.15,-0.168771,-0.00402878
0.155,-0.168969,-0.00111067
0.16,-0.169486,0.000560073
0.165,-0.170841,0.000991657
0.17,-0.1718,-0.00284547
0.175,-0.172879,-0.00660467
0.18,-0.175518,-0.00804535
0.185,-0.178759,-0.0033824
0.19,-0.178338,-0.00122096
0.195,-0.170586,-0.00139764
0.2,-0.156645,0.00204413
0.205,-0.140843,-0.00310834
0.21,-0.126226,-0.00531281
0.215,-0.113072,-0.00333324
0.22,-0.0988792,-0.00275411
0.225,-0.0794504,-0.00223376
0.23,-0.0516936,-6.37E-05
0.235,-0.0178552,-0.00248149
0.24,0.0145334,-0.00496872
0.245,0.0385722,-0.00632543
0.25,0.0527748,-0.00493819
0.255,0.0573908,-0.00649929
0.26,0.0513402,-0.00654946
0.265,0.0331775,-0.00116038
0.27,0.00267526,0.000484635
0.275,-0.0373514,9.83E-05
0.28,-0.0812083,0.000114436
0.285,-0.122241,-0.00258893
0.29,-0.154917,-0.00375246
0.295,-0.179151,-0.00620023
0.3,-0.198593,-0.00770157
0.305,-0.214932,-0.00484771
0.31,-0.227589,-0.00295744
0.315,-0.23717,0.000360208
0.32,-0.245952,-0.00305836
0.325,-0.254217,-0.00249716
0.33,-0.260217,-0.00519459
0.335,-0.263024,-0.00353286
0.34,-0.264253,-0.00337363
0.345,-0.265327,0.00019083
0.35,-0.265657,0.00031981
0.355,-0.264788,-0.00230275
0.36,-0.264113,-0.00624703
0.365,-0.264276,-0.00854384
0.37,-0.268495,-0.0081294
0.375,-0.284429,-0.00140723
0.38,-0.308754,0.00326555
0.385,-0.309046,-0.00160061
0.39,-0.235347,-0.006864
0.395,-0.0394302,-0.0077999
0.4,0.289928,-0.011153
0.405,0.680891,-0.00997653
0.41,1.00974,0.00110936
0.415,1.1784,0.0194381
0.42,1.1571,0.0106167
0.425,0.985006,0.00450205
0.43,0.740647,0.00127059
0.435,0.498073,-0.0128987
0.44,0.300707,-0.0476095
0.445,0.160669,-0.0234563
0.45,0.0707304,0.000857033
0.455,0.0157302,0.00808569
0.46,-0.0193132,0.0282056
0.465,-0.043578,0.0266438
0.47,-0.0604793,-0.000499832
0.475,-0.0717258,-0.0268912
0.48,-0.0791964,-0.0219102
0.485,-0.0836919,-0.00512663
0.49,-0.0843467,0.00560208
0.495,-0.0811046,-0.00153785
0.5,-0.0755171,-0.00422122
0.505,-0.0686511,0.00154634
0.51,-0.0599557,0.001209
0.515,-0.0493541,-0.00453966
0.52,-0.0379913,-0.00494909
0.525,-0.0254871,-0.00449654
0.53,-0.0103515,-0.00918072
0.535,0.00671995,-0.008145
0.54,0.0235369,-0.00607906
0.545,0.0392219,-0.00454489
0.55,0.0558457,-0.00753672
0.555,0.0750865,-0.00743157
0.56,0.0964118,0.000454192
0.565,0.119828,0.00263248
0.57,0.145931,0.00029834
0.575,0.173109,-0.0002638
0.58,0.198983,-0.00132226
0.585,0.223806,0.00103913
0.59,0.24918,0.000363315
0.595,0.274234,-0.00492719
0.6,0.296378,-0.00401458
0.605,0.314508,-0.00797802
0.61,0.32946,-0.00707346
0.615,0.341077,-0.00622296
0.62,0.347344,-0.00654218
0.625,0.347312,-0.00394593
0.63,0.340324,-0.00110909
0.635,0.323835,-0.00106809
0.64,0.29554,-0.00127736
0.645,0.256544,-4.23E-05
0.65,0.211636,0.000442913
0.655,0.165178,-0.00257854
0.66,0.119511,-0.00621426
0.665,0.0767376,-0.0048272
0.67,0.0393389,-0.00273968
0.675,0.00839616,-0.00310783
0.68,-0.0171545,-0.00183469
0.685,-0.0376904,-0.00276226
0.69,-0.0526655,-0.0047837
0.695,-0.0626837,-0.00300364
0.7,-0.0699012,-0.00455777
0.705,-0.0749928,-0.00307107
0.71,-0.0776567,-0.000121881
0.715,-0.0792102,-0.00286139
0.72,-0.0813132,-0.00628815
0.725,-0.0840353,-0.00894534
0.73,-0.0856147,-0.00727974
0.735,-0.085677,0.000577435
0.74,-0.0858439,0.0121237
0.745,-0.0863887,-0.000175079
0.75,-0.0856936,-0.0365053
0.755,-0.084178,-0.00185918
0.76,-0.0829308,0.00691055
0.765,-0.0815293,0.00129982
0.77,-0.0791617,0.00923096
0.775,-0.0759323,0.0012711
0.78,-0.0726732,-0.0102591
0.785,-0.070135,-0.00452394
0.79,-0.0674404,-0.00575678
0.795,-0.0639242,-0.00725353
0.8,-0.0603545,-0.002496
0.805,-0.0567155,-0.00331048
0.81,-0.0519928,-0.00375218
0.815,-0.0467937,-0.00176338
0.82,-0.0428836,-0.000800302
0.825,-0.0406323,-0.00165077
0.83,-0.0387737,-0.00436474
0.835,-0.0369507,-0.00560098
0.84,-0.0359866,-0.00272293
0.845,-0.0352972,0.00193281
0.85,-0.0337527,-0.00213026
0.855,-0.0310408,-0.00688114
0.86,-0.0284176,-0.00870221
0.865,-0.0266732,-0.0064892
0.87,-0.0256616,-0.00333119
0.875,-0.0261946,-0.00757608
0.88,-0.0295134,-0.00263992
0.885,-0.0343801,7.77E-06
0.89,-0.0383217,0.00318749
0.895,-0.0407897,-0.00122066
0.9,-0.0435807,-0.00750764
0.905,-0.0473659,-0.00237622
0.91,-0.0510485,-0.00214616
0.915,-0.0542411,-0.00367913
0.92,-0.0582361,-0.00219843
0.925,-0.0632911,-0.00253179
0.93,-0.0680431,-0.00428942
0.935,-0.0721932,-0.00542295
0.94,-0.0763486,-0.00304013
0.945,-0.0805744,-0.00154778
0.95,-0.0846552,0.000376588
0.955,-0.0892602,0.000782847
0.96,-0.0947193,-0.00287702
0.965,-0.100141,-0.00555449
0.97,-0.104585,-0.0019857
0.975,-0.10943,-0.00261224
0.98,-0.116043,-0.00528626
0.985,-0.123001,-0.00557004
0.99,-0.127983,-0.00496633
0.995,-0.130804,-0.00495207
1,-0.133327,-0.00762986
1.005,-0.136367,-0.00655097
1.01,-0.13872,-0.00289997
1.015,-0.139781,-0.00260162
1.02,-0.14068,-0.00181308
1.025,-0.142487,0.000636856
1.03,-0.144907,-0.001064
1.035,-0.147152,-0.00145466
1.04,-0.149062,-0.00242585
1.045,-0.150365,-0.00240668
1.05,-0.150576,-0.00428652
1.055,-0.15035,-0.00140081
1.06,-0.15075,-0.00250293
1.065,-0.151553,-0.00335768
1.07,-0.152282,-0.00477667
1.075,-0.154176,-0.00519268
1.08,-0.159221,-0.00290426
1.085,-0.166529,-0.00274302
1.09,-0.172841,-0.00370428
1.095,-0.176316,-0.00196604
1.1,-0.178229,-0.00248936
1.105,-0.179973,-0.00402816
1.11,-0.181222,-0.00588168
1.115,-0.181967,-0.00323898
1.12,-0.183359,-0.00625866
1.125,-0.185673,-0.00422973
1.13,-0.187487,-0.00284593
1.135,-0.188315,0.00163545
1.14,-0.189157,-0.000308812
1.145,-0.190422,-0.00261664
1.15,-0.191467,-0.003496
1.155,-0.192746,-0.00304212
1.16,-0.195217,-0.00491514
1.165,-0.198621,-0.00312287
1.17,-0.200805,-0.00337313
1.175,-0.20112,-0.00755223
1.18,-0.201536,-0.0054933
1.185,-0.202171,-0.00200879
1.19,-0.199126,-0.00152216
1.195,-0.18914,0.000168601
1.2,-0.1743,-0.00404953
1.205,-0.159485,-0.00422851
1.21,-0.14713,-0.0042087
1.215,-0.135514,-0.00177571
1.22,-0.120779,-0.00176875
1.225,-0.0989255,-0.00235559
1.23,-0.0689368,-0.00367691
1.235,-0.0350781,-0.00455666
1.24,-0.00607235,-0.00220368
1.245,0.0122134,-0.00262397
1.25,0.0202787,-0.00822679
1.255,0.0200527,-0.00343408
1.26,0.00979713,0.000277322
1.265,-0.0133136,-0.000136277
1.27,-0.0482445,-0.00481366
1.275,-0.090765,-0.0046727
1.28,-0.135796,-0.00117936
1.285,-0.17791,-0.00370594
1.29,-0.211999,-0.00340592
1.295,-0.236764,-0.0037452
1.3,-0.254809,-0.00501251
1.305,-0.268335,-0.00562569
1.31,-0.277688,-0.00295438
1.315,-0.284297,-0.00159304
1.32,-0.291048,-0.00170472
1.325,-0.29859,-0.00243768
1.33,-0.304746,-0.00205711
1.335,-0.30866,-0.000540718
1.34,-0.311691,-0.0025859
1.345,-0.314205,-0.00415358
1.35,-0.314896,-0.00499092
1.355,-0.313672,-0.00311972
1.36,-0.312042,-0.00581095
1.365,-0.31362,-0.00317786
1.37,-0.32461,-0.00459697
1.375,-0.346545,-0.00247016
1.38,-0.357812,-0.00411005
1.385,-0.314036,-0.00717021
1.39,-0.163753,-0.00564425
1.395,0.122749,-0.00287013
1.4,0.500264,-0.00802397
1.405,0.854414,-0.00495728
1.41,1.07548,0.0110794
1.415,1.11272,0.0142388
1.42,0.983845,-0.00060131
1.425,0.756276,-0.00200321
1.43,0.507569,0.000199072
1.435,0.292658,-0.0283668
1.44,0.13271,-0.0342121
1.445,0.0252098,-0.00585719
1.45,-0.0421768,0.00262131
1.455,-0.0839578,0.0118521
1.46,-0.112223,0.0251436
1.465,-0.133231,0.00911804
1.47,-0.147501,-0.0122407
1.475,-0.155223,-0.0159538
1.48,-0.158541,-0.00885869
1.485,-0.158999,0.00221404
1.49,-0.15649,0.00210433
1.495,-0.151677,-0.00329362
1.5,-0.145905,-0.00515438
1.505,-0.13891,-0.0046838
1.51,-0.12963,-0.00579126
1.515,-0.118451,-0.00329387
1.52,-0.106729,-0.00217532
1.525,-0.0950949,-0.00374378
1.53,-0.0828644,-0.00373846
1.535,-0.0693252,-0.0116336
1.54,-0.0547507,-0.010181
1.545,-0.0388611,-0.00865299
1.55,-0.0202543,-0.00432122
1.555,0.00139355,-0.00223833
1.56,0.0243869,-0.00151924
1.565,0.0479837,0.00603165
1.57,0.0726692,0.0057858
1.575,0.0988599,0.00427485
1.58,0.125053,-0.000538408
1.585,0.150301,-0.004574
1.59,0.175367,-0.00490977
1.595,0.199141,-0.00987209
1.6,0.219344,-0.00929071
1.605,0.235258,-0.00302211
1.61,0.24768,-0.00396214
1.615,0.256203,-0.00613837
1.62,0.258007,-0.00376407
1.625,0.25037,-0.00553537
1.63,0.232903,-0.00553347
1.635,0.205254,-0.000283473
1.64,0.167225,0.00115219
1.645,0.121463,0.00391898
1.65,0.0724987,0.00261557
1.655,0.0239675,-0.00385946
1.66,-0.0221852,-0.00566916
1.665,-0.0639974,-0.00813747
1.67,-0.0995104,-0.00670327
1.675,-0.128207,-0.00129131
1.68,-0.151422,-0.00328863
1.685,-0.169655,0.000494507
1.69,-0.182765,-0.00224644
1.695,-0.191621,-0.00614408
1.7,-0.198539,-0.00562846
1.705,-0.204726,-0.00517715
1.71,-0.208829,-0.00669213
1.715,-0.210554,-0.00363484
1.72,-0.211507,-0.00242632
1.725,-0.21259,-0.00135662
1.73,-0.212518,0.00039437
1.735,-0.21091,0.0022019
1.74,-0.209919,0.00824359
1.745,-0.210322,-0.0167459
1.75,-0.209856,-0.0317879
1.755,-0.207313,0.0245807
1.76,-0.204371,0.00198612
1.765,-0.201843,-3.46E-05
1.77,-0.198438,0.00235706
1.775,-0.193913,-0.0105164
1.78,-0.190497,-0.0131027
1.785,-0.189245,-0.00779762
1.79,-0.187525,-0.00121864
1.795,-0.183809,-0.00478674
1.8,-0.179445,-0.00493125
1.805,-0.175318,0.000510536
1.81,-0.170829,0.00218754
1.815,-0.166229,-0.00408079
1.82,-0.16269,-0.00775057
1.825,-0.159784,-0.00414154
1.83,-0.15586,-0.00146266
1.835,-0.151423,-0.00120274
1.84,-0.148172,0.00119141
1.845,-0.145723,-0.00235151
1.85,-0.142094,-0.002443
1.855,-0.137528,-0.00275269
1.86,-0.133562,-0.00118855
1.865,-0.13112,-0.00390294
1.87,-0.129183,-0.00765142
1.875,-0.126963,-0.00900165
1.88,-0.125268,-0.00855526
1.885,-0.124108,-0.0077753
1.89,-0.122814,-0.00375337
1.895,-0.121754,-0.00390618
1.9,-0.121628,-0.00357439
1.905,-0.122093,0.00403755
1.91,-0.121774,0.0039248
1.915,-0.119945,0.00100225
1.92,-0.117574,-0.00261018
1.925,-0.116197,-0.00196922
1.93,-0.115623,-0.00144161
1.935,-0.114739,-0.00554962
1.94,-0.113726,-0.00595832
1.945,-0.112233,-0.00438183
1.95,-0.10894,-0.00305673
1.955,-0.104272,-0.00346942
1.96,-0.10046,-0.00263237
1.965,-0.0979738,-0.00510502
1.97,-0.0953328,-0.00483049
1.975,-0.0924738,-0.00217548
1.98,-0.0904305,-0.00270587
1.985,-0.0887436,-0.00248516
1.99,-0.0859483,-0.00198468
1.995,-0.0824065,-0.00396779
2,-0.0799099,-0.00594274
2.005,-0.0778979,-0.0051783
2.01,-0.0742472,-0.00598541
2.015,-0.0694829,-0.0035111
2.02,-0.0664921,-0.00143912
2.025,-0.0662289,-0.00231395
2.03,-0.0662955,-0.00118732
2.035,-0.0641612,-0.00277237
2.04,-0.060226,-0.00378091
2.045,-0.0557592,-0.0019665
2.05,-0.0507943,-0.00323818
2.055,-0.0454881,-0.00276467
2.06,-0.0413823,-0.000735308
2.065,-0.0387981,-0.00237946
2.07,-0.0361668,-0.00414176
2.075,-0.0329893,-0.00453796
2.08,-0.0303174,-0.00415357
2.085,-0.028573,-0.00297483
2.09,-0.0267661,-0.00047609
2.095,-0.0243672,-0.00325737
2.1,-0.0224777,-0.0042506
2.105,-0.021203,-0.00232371
2.11,-0.0188506,-0.00442011
2.115,-0.0147436,-0.00263528
2.12,-0.00988269,-0.00274752
2.125,-0.00497322,-0.00295339
2.13,-0.00044157,-0.00239431
2.135,0.00297603,-0.00550237
2.14,0.00428677,-0.0060462
2.145,0.00368927,-0.00357737
2.15,0.00345801,-0.00302172
2.155,0.00573527,-0.00291889
2.16,0.0124954,-0.00585087
2.165,0.0243615,-0.00527222
2.17,0.0398577,-0.000337876
2.175,0.0553754,-0.00221133
2.18,0.0682607,-0.00263257
2.185,0.0808898,-0.0048444
2.19,0.0994976,-0.00351244
2.195,0.127669,-0.00203645
2.2,0.162683,-0.00221912
2.205,0.198266,-0.000731512
2.21,0.227928,-0.00369262
2.215,0.247384,-0.00096186
2.22,0.255799,-0.00325439
2.225,0.25404,-0.00479984
2.23,0.242546,-0.00452252
2.235,0.219724,-0.00345515
2.24,0.184484,-0.00444882
2.245,0.140772,-0.00440806
2.25,0.096932,-0.00201081
2.255,0.0601212,-0.000847789
2.26,0.0321536,-0.00401757
2.265,0.0113534,-0.00410332
2.27,-0.0038488,-0.00324548
2.275,-0.0152717,-0.00552799
2.28,-0.0254422,-0.00372626
2.285,-0.0352678,-0.00372123
2.29,-0.0434248,-0.001619
2.295,-0.0492442,-0.00584676
2.3,-0.0538896,0.00433916
2.305,-0.0584861,0.00228659
2.31,-0.0614299,-0.00136557
2.315,-0.0614823,-0.00191266
2.32,-0.0600641,-0.00605293
2.325,-0.0587979,-0.00711613
2.33,-0.0578878,-0.00846445
2.335,-0.0603605,-0.00733499
2.34,-0.0750416,-0.0056628
2.345,-0.103814,-0.00664173
2.35,-0.120334,-0.00604303
2.355,-0.0760883,-0.00555739
2.36,0.0814515,0.000996198
2.365,0.384004,-0.00495059
2.37,0.786309,0.000728937
2.375,1.1663,0.00320444
2.38,1.4012,0.00862467
2.385,1.4365,0.00487352
2.39,1.29914,-0.00126183
2.395,1.0661,0.00200318
2.4,0.815435,-0.000903243
2.405,0.600065,-0.0285042
2.41,0.442442,-0.0344249
2.415,0.340076,-0.00967409
2.42,0.277706,-0.00382553
2.425,0.239719,0.017296
2.43,0.216278,0.031551
2.435,0.201847,0.014333
2.44,0.192836,-0.0144687
2.445,0.187771,-0.0207382
2.45,0.187161,-0.0112082
2.455,0.191278,0.00830222
2.46,0.198781,-0.00188992
2.465,0.208376,-0.00825626
2.47,0.219712,-0.0025384
2.475,0.232009,-0.00248927
2.48,0.244253,-0.00602825
2.485,0.257147,-0.0110397
2.49,0.271248,-0.00792044
2.495,0.285085,-4.35E-07
2.5,0.297461,0.00167976
2.505,0.308818,-0.00299622
2.51,0.321605,-0.00477925
2.515,0.337157,-0.00651743
2.52,0.354706,-0.0066947
2.525,0.373825,-0.00494672
2.53,0.395279,-0.00309649
2.535,0.419555,-0.0024834
2.54,0.444658,0.00153244
2.545,0.468613,0.00163567
2.55,0.491581,-0.00398528
2.555,0.514406,-0.00537887
2.56,0.536153,-0.00346224
2.565,0.555159,-0.000592446
2.57,0.570936,-0.0012313
2.575,0.583187,-0.00349203
2.58,0.590847,-0.00249879
2.585,0.593136,-0.00443621
2.59,0.589571,-0.00410657
2.595,0.578628,-0.00524381
2.6,0.557059,-0.00684171
2.605,0.523122,-0.00652169
2.61,0.479073,0.000221217
2.615,0.428406,-0.00150564
2.62,0.37413,-0.00603211
2.625,0.319546,-0.000102042
2.63,0.268613,9.38E-05
2.635,0.223775,-0.00211442
2.64,0.184692,-0.00346001
2.645,0.150575,-0.00104772
2.65,0.121568,-0.00219624
2.655,0.0972129,-0.00266004
2.66,0.0758327,-0.00705805
2.665,0.0567211,-0.00896042
2.67,0.0411939,-0.00437807
2.675,0.0299832,-0.00201266
2.68,0.0211589,-0.00203185
2.685,0.0130141,-4.81E-06
2.69,0.00580113,-0.00218698
2.695,-0.00052233,-0.00618637
2.7,-0.00740971,-0.004958
2.705,-0.0153642,0.00569915
2.71,-0.0231269,-0.00752178
2.715,-0.0300134,-0.0355445
2.72,-0.0367005,0.0189341
2.725,-0.0430688,0.00579734
2.73,-0.0481051,0.00501881
2.735,-0.0522746,-0.00519989
2.74,-0.0575944,-0.00775633
2.745,-0.0647394,-0.00750128
2.75,-0.071903,-0.0094305
2.755,-0.077838,0.000391276
2.76,-0.0831151,0.00471933
2.765,-0.0881789,-0.00367331
2.77,-0.0921447,-0.00511067
2.775,-0.0945486,-0.00550932
2.78,-0.0970368,-0.00202248
2.785,-0.101351,-0.000588521
2.79,-0.106974,-0.00332435
2.795,-0.112623,-0.00518363
2.8,-0.118913,-0.00204587
2.805,-0.126229,-7.80E-05
2.81,-0.133054,-0.00472724
2.815,-0.138367,-0.00635968
2.82,-0.143493,-0.00510343
2.825,-0.149927,-0.00296801
2.83,-0.15702,0.000257199
2.835,-0.163805,-0.00108204
2.84,-0.170433,-0.00268562
2.845,-0.176857,-0.00494441
2.85,-0.182005,-0.00880354
2.855,-0.185801,-0.0105543
2.86,-0.190225,-0.013122
2.865,-0.195565,-0.00604033
2.87,-0.199893,0.00247279
2.875,-0.202623,0.00505582
2.88,-0.205381,0.00343886
2.885,-0.209465,-8.88E-05
2.89,-0.214257,-0.00140671
2.895,-0.218983,-0.000299933
2.9,-0.224107,-0.00158194
2.905,-0.229605,-0.0042639
2.91,-0.233781,-0.00371868
2.915,-0.23608,-0.00307565
2.92,-0.238304,-0.0043329
2.925,-0.241141,-0.00469848
2.93,-0.24284,-0.00406114
2.935,-0.242614,-0.00789755
2.94,-0.242542,-0.00497456
2.945,-0.243889,-0.00117208
2.95,-0.245628,-0.00291987
2.955,-0.246761,-0.00176386
2.96,-0.24832,-0.00368678
2.965,-0.251213,-0.00214038
2.97,-0.254254,-0.00162018
2.975,-0.256018,-0.00211773
2.98,-0.256988,-0.00220575
2.985,-0.258138,-0.00394183
2.99,-0.259056,-0.00352227
2.995,-0.259976,-0.00502159
3,-0.262365,-0.00731263
3.005,-0.266448,-0.00751249
3.01,-0.270373,-0.00375991
3.015,-0.272551,-0.00298245
3.02,-0.273508,-0.000289954
3.025,-0.274067,1.18E-05
3.03,-0.274179,0.000269691
3.035,-0.274552,-0.00109554
3.04,-0.276378,-0.00341884
3.045,-0.279491,-0.00198457
3.05,-0.281865,-0.00232853
3.055,-0.282605,-0.00271322
3.06,-0.28334,-0.00537521
3.065,-0.285159,-0.00360282
3.07,-0.286423,-0.00446204
3.075,-0.284461,-0.00497561
3.08,-0.277785,-0.00597199
3.085,-0.266628,-0.00471439
3.09,-0.252304,-0.00265319
3.095,-0.237813,-0.00405643
3.1,-0.22521,-0.00316702
3.105,-0.212598,-0.0019304
3.11,-0.194962,-0.00190127
3.115,-0.168619,-0.00232877
3.12,-0.135299,-0.00145336
3.125,-0.101767,-0.000812656
3.13,-0.0748382,-0.00294375
3.135,-0.0580303,-0.00763537
3.14,-0.0527817,-0.0067401
3.145,-0.0586392,-0.00599928
3.15,-0.0743348,-0.00497041
3.155,-0.100157,-0.000212247
3.16,-0.136543,-0.000245686
3.165,-0.180129,-0.000980629
3.17,-0.223493,-1.51E-05
3.175,-0.260211,5.75E-05
3.18,-0.288388,-0.00554543
3.185,-0.308663,-0.00602998
3.19,-0.322132,-0.00552373
3.195,-0.331548,-0.00400521
3.2,-0.340314,-0.00311863
3.205,-0.349774,-0.00209321
3.21,-0.358395,-0.0031185
3.215,-0.364933,-0.00630523
3.22,-0.370171,-0.00478774
3.225,-0.374818,-0.000630268
3.23,-0.37739,0.00142962
3.235,-0.3768,-0.00129648
3.24,-0.374176,-0.00451289
3.245,-0.371508,-0.0048904
3.25,-0.36969,-0.00516474
3.255,-0.371792,-0.00354547
3.26,-0.386018,-0.00130016
3.265,-0.414206,-0.00284616
3.27,-0.43135,-0.00510741
3.275,-0.390267,-0.00733531
3.28,-0.2397,-0.00692344
3.285,0.0529558,-0.00855909
3.29,0.447493,-0.00840184
3.295,0.825329,-0.0036823
3.3,1.06515,0.0102983
3.305,1.10998,0.0162695
3.31,0.980178,0.000906101
3.315,0.748224,-0.000351168
3.32,0.493813,0.00137114
3.325,0.273568,-0.0222671
3.33,0.111603,-0.035766
3.335,0.00501956,-0.0117482
3.34,-0.0619342,-0.00429873
3.345,-0.104188,0.0155036
3.35,-0.13105,0.0349333
3.355,-0.148421,0.0214193
3.36,-0.160855,-0.0190929
3.365,-0.170612,-0.0290599
3.37,-0.176271,-0.0167592
3.375,-0.176104,0.00192365
3.38,-0.171613,0.0026826
3.385,-0.16503,-0.00173981
3.39,-0.156457,0.00093689
3.395,-0.145755,0.00178529
3.4,-0.134614,-0.00429063
3.405,-0.123677,-0.00899983
3.41,-0.111361,-0.0082845
3.415,-0.0965009,-0.00507382
3.42,-0.0800717,0.00104368
3.425,-0.0636947,-0.00262045
3.43,-0.0474266,-0.00868844
3.435,-0.0301119,-0.00560535
3.44,-0.011825,-0.00921954
3.445,0.00677286,-0.00562391
3.45,0.0264716,-0.00241912
3.455,0.0475532,-0.000872775
3.46,0.0687271,0.00212958
3.465,0.0892889,7.47E-05
3.47,0.11049,0.00112869
3.475,0.132521,-0.000705051
3.48,0.152871,-0.00168568
3.485,0.169829,-0.00202316
3.49,0.183781,-0.00587046
3.495,0.195335,-0.0062466
3.5,0.202804,-0.00703203
3.505,0.20469,-0.00696403
3.51,0.20147,-0.00539994
3.515,0.192328,-0.00431238
3.52,0.174129,-0.00190906
3.525,0.145142,0.000616425
3.53,0.107341,-0.00278357
3.535,0.0646935,-0.00189513
3.54,0.0193864,-0.00118393
3.545,-0.0262875,-0.00118197
3.55,-0.0680033,-0.000795891
3.555,-0.102854,-0.00282399
3.56,-0.131316,-0.00353272
3.565,-0.154886,-0.00524836
3.57,-0.173065,-0.00404144
3.575,-0.185036,-0.00385169
3.58,-0.192627,-0.0074862
3.585,-0.198266,-0.00418281
3.59,-0.202114,-0.00266208
3.595,-0.203684,-0.00291146
3.6,-0.204354,-0.00426177
3.605,-0.205903,-0.00457411
3.61,-0.208068,-0.00323802
3.615,-0.209017,-0.00494066
3.62,-0.208294,-0.00308687
3.625,-0.206436,0.00743607
3.63,-0.20289,0.00473464
3.635,-0.197398,-0.0353492
3.64,-0.191402,0.004594
3.645,-0.185746,0.00710233
3.65,-0.179779,0.00350389
3.655,-0.173424,-0.000689169
3.66,-0.167946,0.00100709
3.665,-0.162853,-0.00129906
3.67,-0.156047,-0.00696491
3.675,-0.146083,-0.0055749
3.68,-0.134192,-0.00826523
3.685,-0.122401,-0.005647
3.69,-0.111322,-0.00655805
3.695,-0.100424,-0.01131
3.7,-0.0897443,-0.00358833
3.705,-0.0798244,-0.00174459
3.71,-0.0698801,0.00691753
3.715,-0.0594254,-0.00416058
3.72,-0.0495111,-0.00729712
3.725,-0.0407419,-5.77E-05
3.73,-0.0319998,1.26E-05
3.735,-0.0222733,-0.0077709
3.74,-0.0127624,-0.00552024
3.745,-0.00476327,-0.00253951
3.75,0.00246107,0.000923117
3.755,0.00936918,0.000592735
3.76,0.014936,-0.000696433
3.765,0.0194991,-0.000719293
3.77,0.0249164,-0.00867561
3.775,0.0311331,-0.00813811
3.78,0.0356709,-0.00281432
3.785,0.0379149,-0.00262495
3.79,0.039272,-0.00116685
3.795,0.0408899,4.54E-05
3.8,0.0425711,-0.00139239
3.805,0.0443507,-0.00596172
3.81,0.0473272,-0.0114945
3.815,0.0516229,-0.00860146
3.82,0.0555276,-0.00534211
3.825,0.0587534,0.00233184
3.83,0.0624052,0.00136845
3.835,0.0674225,0.00023574
3.84,0.0737838,-0.00146748
3.845,0.0811391,-0.00406411
3.85,0.0893708,-0.000129705
3.855,0.0977658,-0.00356833
3.86,0.104792,-0.00416767
3.865,0.110301,-0.003595
3.87,0.115929,-0.00497684
3.875,0.122497,-0.00329955
3.88,0.128656,-0.00568232
3.885,0.133333,-0.00523516
3.89,0.137262,-0.00130567
3.895,0.141528,-0.00279071
3.9,0.14516,-0.00445311
3.905,0.146541,-0.00373766
3.91,0.145746,-0.00204422
3.915,0.143696,-0.002382
3.92,0.14024,-0.00234344
3.925,0.135689,-0.00424633
3.93,0.131195,-0.000744943
3.935,0.127139,-0.0103159
3.94,0.122707,-0.000872081
3.945,0.117491,-0.000728622
3.95,0.112713,-0.00193051
3.955,0.108992,-0.00371859
3.96,0.104534,-0.000804097
3.965,0.0978845,-0.000217244
3.97,0.0906504,-0.00573634
3.975,0.0838257,-0.00560613
3.98,0.0757142,-0.00443555
3.985,0.0656113,-0.00470793
3.99,0.0548887,-0.00029167
3.995,0.0448918,-0.00448816
4,0.035454,-0.00279365
4.005,0.0261288,-0.00432337
4.01,0.0169014,-0.00196222
4.015,0.00776224,-0.00452696
4.02,-0.00188063,-0.0060427
4.025,-0.0119536,-0.0046854
4.03,-0.0193137,0.000708284
4.035,-0.0203651,-0.000177496
4.04,-0.0158565,-0.000345491
4.045,-0.00953474,-0.003295
4.05,-0.00370486,-0.0071665
4.055,0.00244854,-0.00506232
4.06,0.0109454,-0.00638738
4.065,0.0237296,-0.00546579
4.07,0.0429891,-0.00309131
4.075,0.0680393,-0.0016745
4.08,0.0920213,-0.00115272
4.085,0.107451,-0.00206961
4.09,0.113116,-0.00308744
4.095,0.109963,-0.00525738
4.1,0.096342,-0.00340743
4.105,0.0703049,-0.00119485
4.11,0.0320084,-0.00108649
4.115,-0.0150663,-0.00567171
4.12,-0.0657961,-0.00163507
4.125,-0.114982,-0.00336461
4.13,-0.156938,-0.00494782
4.135,-0.188724,-0.000216831
4.14,-0.21188,0.00333969
4.145,-0.229139,-0.00218102
4.15,-0.241773,-0.00483911
4.155,-0.251224,-0.00646686
4.16,-0.261199,-0.00714344
4.165,-0.273339,-0.00790169
4.17,-0.285498,-0.00485454
4.175,-0.294965,-0.00296676
4.18,-0.302268,-0.0036914
4.185,-0.308206,-0.00184786
4.19,-0.311795,-0.000347148
4.195,-0.312924,-0.00186112
4.2,-0.313635,0.00092401
4.205,-0.315311,-0.00262321
4.21,-0.320809,-0.00759261
4.215,-0.336117,-0.00433619
4.22,-0.359478,-0.00290381
4.225,-0.362912,-0.00187356
4.23,-0.299072,-0.00355873
4.235,-0.118862,-0.00492793
4.24,0.194575,-0.00607124
4.245,0.577851,-0.00554079
4.25,0.91216,3.72E-05
4.255,1.09748,0.00848318
4.26,1.09592,0.00348461
4.265,0.936841,-0.00431419
4.27,0.69367,-0.00078216
4.275,0.442692,-0.0115158
4.28,0.232763,-0.0316704
4.285,0.0800667,-0.0172896
4.29,-0.020263,0.00398484
4.295,-0.0824133,0.00431337
4.3,-0.121673,0.0109724
4.305,-0.148676,0.0202484
4.31,-0.167969,0.00650643
4.315,-0.181574,-0.00857369
4.32,-0.191073,-0.0189453
4.325,-0.19713,-0.00971828
4.33,-0.198971,0.000448834
4.335,-0.196435,0.00264316
4.34,-0.191515,-0.00316174
4.345,-0.186092,-0.00649085
4.35,-0.180006,-0.00319676
4.355,-0.172031,-0.00568324
4.36,-0.16233,-0.00430455
4.365,-0.152059,-0.00470113
4.37,-0.14126,-0.00394104
4.375,-0.129113,-0.00304996
4.38,-0.115881,-0.00520136
4.385,-0.101698,-0.00515762
4.39,-0.0857554,-0.00608563
4.395,-0.0673792,-0.00291277
4.4,-0.0468278,-0.0033643
4.405,-0.0250169,0.000612366
4.41,-0.00213544,-0.00138902
4.415,0.0217849,-0.00442695
4.42,0.0457791,3.18E-05
4.425,0.0692912,-0.00432186
4.43,0.0931113,-0.00198596
4.435,0.11702,-0.00332357
4.44,0.139027,-0.00153245
4.445,0.157818,-0.00446121
4.45,0.173579,-0.00796754
4.455,0.185863,-0.00472187
4.46,0.192519,-0.00158896
4.465,0.191794,0.000271521
4.47,0.182784,-0.00416179
4.475,0.1645,-0.00167911
4.48,0.135766,-0.00569323
4.485,0.0972673,-0.00554383
4.49,0.0528119,-0.0037395
4.495,0.0071292,0.00131901
4.5,-0.0374432,-0.000863897
4.505,-0.0798695,3.32E-05
4.51,-0.117655,-0.00217622
4.515,-0.148454,-0.00611235
4.52,-0.171912,-0.00569842
4.525,-0.189006,-0.00538931
4.53,-0.20014,-0.00818332
4.535,-0.206409,-0.00587378
4.54,-0.210245,-0.00351749
4.545,-0.213715,0.00298987
4.55,-0.216982,-0.000783394
4.555,-0.219248,-0.00506763
4.56,-0.22142,-0.00407983
4.565,-0.22417,-0.00426917
4.57,-0.226049,-0.00207645
4.575,-0.226105,-0.00114247
4.58,-0.225452,0.00451795
4.585,-0.225731,0.00818707
4.59,-0.227228,-0.020257
4.595,-0.228741,-0.0273548
4.6,-0.229769,0.0151926
4.605,-0.230247,0.00368756
4.61,-0.22944,-0.000724523
4.615,-0.227087,0.00153711
4.62,-0.224871,0.000326527
4.625,-0.224508,-0.01081
4.63,-0.225018,-0.0127967
4.635,-0.224782,-0.00531777
4.64,-0.224664,-0.000939384
4.645,-0.225952,-0.00157326
4.65,-0.227448,-0.00392889
4.655,-0.227225,-0.00289925
4.66,-0.225494,-0.00311106
4.665,-0.224087,-0.00635726
4.67,-0.223217,-0.00093862
4.675,-0.222411,-0.00193316
4.68,-0.221915,-0.00228879
4.685,-0.221428,0.000450561
4.69,-0.220172,0.00042789
4.695,-0.218961,-0.00361824
4.7,-0.219321,-0.00436412
4.705,-0.221051,-0.00657126
4.71,-0.222436,-0.00511328
4.715,-0.222417,-0.00207638
4.72,-0.221589,-0.00214634
4.725,-0.220575,-0.00372591
4.73,-0.219497,-0.0076098
4.735,-0.218877,-0.0061462
4.74,-0.219818,-0.00278957
4.745,-0.222365,-0.00135427
4.75,-0.224575,0.000663114
4.755,-0.225241,-0.00304466
4.76,-0.226051,-0.00698367
4.765,-0.228418,-0.00244747
4.77,-0.230817,-8.14E-05
4.775,-0.231767,-0.00235076
4.78,-0.23207,-0.00609354
4.785,-0.232063,-0.00406349
4.79,-0.230851,-0.000696728
4.795,-0.228564,-0.00110834
4.8,-0.227786,-0.00184646
4.805,-0.229436,-0.00151912
4.81,-0.231338,-0.00460939
4.815,-0.231865,-0.00403614
4.82,-0.231752,-0.00209193
4.825,-0.232324,-0.00156568
4.83,-0.232683,-0.00655072
4.835,-0.231788,-0.0073791
4.84,-0.230671,-0.00786661
4.845,-0.230919,-0.00648189
4.85,-0.231875,-0.00192955
4.855,-0.232167,0.00135989
4.86,-0.232224,-0.00229002
4.865,-0.232621,-0.00321358
4.87,-0.232856,1.08E-05
4.875,-0.232305,-0.00174572
4.88,-0.231367,-0.00487471
4.885,-0.230599,-0.0033168
4.89,-0.229725,-0.00107644
4.895,-0.22835,-0.00265707
4.9,-0.226953,-0.00432236
4.905,-0.226212,-0.00390922
4.91,-0.226166,-0.00188683
4.915,-0.226604,-0.00310274
4.92,-0.227768,-0.00302207
4.925,-0.229584,-0.00189837
4.93,-0.230722,-0.00471877
4.935,-0.23008,-0.00503468
4.94,-0.228847,-0.00484471
4.945,-0.228828,-0.0045896
4.95,-0.229633,-0.00226589
4.955,-0.230183,-0.00261516
4.96,-0.230939,-0.00115068
4.965,-0.231896,-0.00610641
4.97,-0.230542,-0.00433129
4.975,-0.224025,-0.00348163
4.98,-0.21168,-0.00248122
4.985,-0.196039,0.00195447
4.99,-0.180603,-0.00104435
4.995,-0.167213,-0.00269539
5,-0.154866,-0.00152618
5.005,-0.140235,-0.0094693
5.01,-0.11867,-0.00795424
5.015,-0.08867,-0.00511728
5.02,-0.0554475,-0.00497298
5.025,-0.0271604,-0.00606764
5.03,-0.00746848,-0.00124534
5.035,0.00357461,0.000858277
5.04,0.00479256,0.000483032
5.045,-0.00559621,0.00015292
5.05,-0.028302,-0.000103983
5.055,-0.0622346,-0.00367654
5.06,-0.103932,-0.00214873
5.065,-0.148313,-0.00204531
5.07,-0.189117,-0.00464882
5.075,-0.221368,-0.00493758
5.08,-0.244834,-0.00539831
5.085,-0.261531,-0.0040647
5.09,-0.272794,-0.00504482
5.095,-0.279748,-0.00570742
5.1,-0.284495,-0.0021644
5.105,-0.289128,-0.00354892
5.11,-0.293709,-0.00169689
5.115,-0.297468,-0.00499373
5.12,-0.300939,-0.00471161
5.125,-0.304381,-0.00103053
5.13,-0.306795,-0.00139332
5.135,-0.307049,-0.00202622
5.14,-0.305826,-0.00214266
5.145,-0.303739,-0.00334802
5.15,-0.300362,-0.00739723
5.155,-0.299552,-0.00595715
5.16,-0.307977,-0.00476066
5.165,-0.318302,-0.00185569
5.17,-0.2971,-0.000705672
5.175,-0.197454,-0.00265137
5.18,0.0243096,-0.00541359
5.185,0.366081,-0.00589574
5.19,0.743333,-0.00699759
5.195,1.03544,0.00313807
5.2,1.15901,0.0113372
5.205,1.09951,0.00339641
5.21,0.90652,-0.000761305
5.215,0.658239,0.00273007
5.22,0.421695,-0.0128607
5.225,0.233587,-0.0307594
5.23,0.10242,-0.0202337
5.235,0.0191547,-0.00400237
5.24,-0.0315364,-0.00018381
5.245,-0.0631877,0.0122515
5.25,-0.0838666,0.0161052
5.255,-0.0974542,0.0050282
5.26,-0.10708,-0.00136502
5.265,-0.115068,-0.0161669
5.27,-0.120266,-0.0134578
5.275,-0.120596,-0.00405859
5.28,-0.11633,0.00544502
5.285,-0.109178,-0.00091969
5.29,-0.0998012,-0.00191094
5.295,-0.0890171,0.00364188
5.3,-0.0787722,-0.000306445
5.305,-0.0695056,-0.00753879
5.31,-0.058924,-0.00881087
5.315,-0.0453502,-0.00715394
5.32,-0.0295664,-0.00625776
5.325,-0.0134588,-0.00949701
5.33,0.00302703,-0.00755196
5.335,0.0213397,-0.00814559
5.34,0.0419433,-0.00335639
5.345,0.0650189,-0.000269797
5.35,0.0913889,0.00212441
5.355,0.120399,0.00420598
5.36,0.149759,-0.00110629
5.365,0.178014,0.000622931
5.37,0.205781,-0.000919196
5.375,0.233553,-0.00490668
5.38,0.259086,-0.0050958
5.385,0.279842,-0.0049727
5.39,0.29642,-0.00507991
5.395,0.310558,-0.00739735
5.4,0.321435,-0.00794463
5.405,0.3262,-0.00371427
5.41,0.322684,-0.00193575
5.415,0.309408,-0.00436139
5.42,0.284988,-0.00104972
5.425,0.249252,0.000347328
5.43,0.205601,-9.82E-05
5.435,0.15884,0.000390019
5.44,0.111271,-0.00274682
5.445,0.0639452,-0.00347395
5.45,0.0196667,-0.0030603
5.455,-0.0187533,-0.00582567
5.46,-0.0506945,-0.00335697
5.465,-0.0768756,-0.00135895
5.47,-0.0977134,-0.00140777
5.475,-0.113083,-0.00239323
5.48,-0.12433,-0.00504081
5.485,-0.133708,-0.0043963
5.49,-0.140927,-0.00564963
5.495,-0.144617,-0.0076679
5.5,-0.146203,-0.00916907
5.505,-0.147575,-0.00511064
5.51,-0.148378,-0.00277982
5.515,-0.147385,-0.000275484
5.52,-0.145258,0.00368262
5.525,-0.142527,0.00781686
5.53,-0.137825,0.00358109
5.535,-0.131347,-0.0412274
5.54,-0.126,0.00652558
5.545,-0.123299,0.000294912
5.55,-0.121231,0.00554372
5.555,-0.117742,0.00224893
5.56,-0.11331,0.000897932
5.565,-0.109401,-0.000592124
5.57,-0.105406,-0.0107563
5.575,-0.10056,-0.00718196
5.58,-0.0955049,-0.00435285
5.585,-0.0912455,-0.00440517
5.59,-0.0876475,-0.0017814
5.595,-0.0842776,-0.00310154
5.6,-0.081373,-0.00663649
5.605,-0.0793922,-0.00629762
5.61,-0.0771305,-0.00251692
5.615,-0.073453,-0.00386558
5.62,-0.0700164,-0.00230668
5.625,-0.0688737,3.21E-05
5.63,-0.0690864,-0.000138503
5.635,-0.0681537,-0.00207575
5.64,-0.0656801,-0.00379695
5.645,-0.0636376,0.000674953
5.65,-0.0627627,-7.75E-05
5.655,-0.0621118,-0.00755283
5.66,-0.0619953,-0.00571739
5.665,-0.0631257,-0.00763264
5.67,-0.0647009,-0.0059988
5.675,-0.0649904,-0.00602909
5.68,-0.0641734,-0.00367703
5.685,-0.0639597,-0.00274585
5.69,-0.0637888,0.000345685
5.695,-0.0620499,-0.00173285
5.7,-0.0595156,-0.00216399
5.705,-0.0579266,0.000529337
5.71,-0.0569809,-0.00309642
5.715,-0.0556452,-0.00322698
5.72,-0.0544055,-0.00269351
5.725,-0.0540348,-0.00371744
5.73,-0.0541745,-0.0013568
5.735,-0.0537571,-0.00443164
5.74,-0.0529649,-0.0049621
5.745,-0.0522092,-0.00369991
5.75,-0.0503717,-0.00326182
5.755,-0.046738,-0.00416098
5.76,-0.042703,-0.00335279
5.765,-0.0404261,-0.00295928
5.77,-0.0397834,-0.00309246
5.775,-0.0396947,0.000440179
5.78,-0.0401402,-0.00482336
5.785,-0.0412527,-0.00613992
5.79,-0.041341,-0.00310584
5.795,-0.0389732,-0.00447172
5.8,-0.0353979,-0.00141796
5.805,-0.0324636,-0.00390367
5.81,-0.0306604,-0.00467156
5.815,-0.0292202,-0.0052097
5.82,-0.0282177,-0.0036456
5.825,-0.0277972,-0.00109031
5.83,-0.0266117,-0.0017475
5.835,-0.0231454,-0.00117453
5.84,-0.0179017,-0.00209862
5.845,-0.0123417,-0.00493285
5.85,-0.00707775,-0.00122183
5.855,-0.00184792,-0.00269399
5.86,0.00276992,-0.00252808
5.865,0.00584542,-0.00322916
5.87,0.00876534,-0.00305251
5.875,0.0132069,-0.00444535
5.88,0.017946,-0.0045804
5.885,0.021837,-0.00656537
5.89,0.026306,-0.00399793
5.895,0.0332577,-0.000833809
5.9,0.0433728,-0.00112271
5.905,0.0565204,-0.00247673
5.91,0.0717536,-0.00398074
5.915,0.0870011,-0.00271896
5.92,0.100432,-0.00146949
5.925,0.113719,-0.0061681
5.93,0.132242,-0.0063743
5.935,0.160488,-0.00229974
5.94,0.196742,-0.00177619
5.945,0.234023,0.000165941
5.95,0.26508,-0.00471839
5.955,0.28633,-0.0084676
5.96,0.297113,-0.00327453
5.965,0.297343,0.000898611
5.97,0.286843,0.000693639
5.975,0.264854,-0.00094102
5.98,0.231586,-0.00840078
5.985,0.19081,-0.0111314
5.99,0.149005,0.00203976
5.995,0.112566,-0.00101234
6,0.0840002,-0.00826078
6.005,0.0622435,-0.00930939
6.01,0.0460994,-0.00602864
6.015,0.0352632,-0.00263514
6.02,0.0276974,0.00222837
6.025,0.0208444,0.0042229
6.03,0.0150735,-0.00146573
6.035,0.0114663,-0.00173025
6.04,0.00941678,-0.000534483
6.045,0.00840264,-0.00567756
6.05,0.00898271,-0.00267021
6.055,0.0113149,-0.00095871
6.06,0.0139679,-0.00413591
6.065,0.015787,-0.0075171
6.07,0.0168671,-0.00581137
6.075,0.0148884,-0.00413933
6.08,0.0023992,-0.00143692
6.085,-0.0234331,-0.00250375
6.09,-0.0404059,-0.00618178
6.095,-0.00319815,-0.00877201
6.1,0.140115,-0.00594905
6.105,0.426332,-0.0045538
6.11,0.820464,-0.00423532
6.115,1.20653,0.00327765
6.12,1.45922,-0.00344922
6.125,1.51589,0.0148613
6.13,1.39422,0.00259064
6.135,1.16698,-0.00231223
6.14,0.913907,0.00428331
6.145,0.692182,-0.0140554
6.15,0.527319,-0.0384895
6.155,0.417806,-0.0159919
6.16,0.348907,-0.00588452
6.165,0.305422,0.0163185
6.17,0.277945,0.0311413
6.175,0.261238,0.0102716
6.18,0.250152,-0.0125249
6.185,0.241949,-0.0159874
6.19,0.237841,-0.0141881
6.195,0.238923,0.00261839
6.2,0.242924,0.000558218
6.205,0.247178,-0.0074586
6.21,0.252409,-0.000525734
6.215,0.260285,0.00111372
6.22,0.270691,-0.00457954
6.225,0.28227,-0.00654745
6.23,0.294727,-0.00528802
6.235,0.308422,-0.000216719
6.24,0.322475,-0.0108946
6.245,0.335707,8.46E-05
6.25,0.34882,-0.00506009
6.255,0.36356,-0.0111723
6.26,0.380496,-0.00915734
6.265,0.399663,-0.00647551
6.27,0.421933,-0.00397216
6.275,0.448152,-0.0018361
6.28,0.476785,0.00397322
6.285,0.505053,0.004179
6.29,0.531558,0.00272801
6.295,0.556094,-0.00124879
6.3,0.577838,-0.00445694
6.305,0.59631,-0.000885609
6.31,0.612213,-0.00536559
6.315,0.626182,-0.00809934
6.32,0.636579,-0.00495978
6.325,0.641275,-0.00515666
6.33,0.639432,-0.00368281
6.335,0.629423,-0.00261784
6.34,0.607928,-0.0031275
6.345,0.573748,-0.00264859
6.35,0.530405,-0.00332379
6.355,0.482787,-0.00263262
6.36,0.433502,-0.00173125
6.365,0.38389,-0.00131886
6.37,0.336427,-0.00527289
6.375,0.293954,-0.00454487
6.38,0.2569,0.00243482
6.385,0.224848,-0.00911442
6.39,0.198519,-0.00123986
6.395,0.17816,0.000587725
6.4,0.162084,-0.00527487
6.405,0.148153,-0.00804289
6.41,0.136471,-0.00560229
6.415,0.128067,-0.00429487
6.42,0.122519,-0.0028706
6.425,0.118823,-0.00293586
6.43,0.116384,-0.000428483
6.435,0.114389,-6.07E-05
6.44,0.111909,-0.00274017
6.445,0.108668,0.00762053
6.45,0.105959,-0.013867
6.455,0.104261,-0.0353066
6.46,0.10205,0.023343
6.465,0.0979108,0.00219171
6.47,0.0925574,0.00434589
6.475,0.0878627,-0.00101749
6.48,0.0843011,-0.0037017
6.485,0.0810335,-0.00511541
6.49,0.078037,-0.00715293
6.495,0.0756218,-0.00247159
6.5,0.072312,0.000701776
6.505,0.067492,-0.00534274
6.51,0.0631175,-0.0101809
6.515,0.0607394,-0.014023
6.52,0.059258,-0.0078487
6.525,0.0568238,0.00545869
6.53,0.054033,-0.0100282
6.535,0.0517287,0.00597235
6.54,0.0490406,0.00749263
6.545,0.0449813,-0.00231248
6.55,0.0409443,-0.0071779
6.555,0.0380434,-0.00677886
6.56,0.0347755,-0.0069742
6.565,0.030025,-0.00311055
6.57,0.0250811,0.00174966
6.575,0.0210782,-0.00063128
6.58,0.0169872,-0.00297451
6.585,0.0112198,-0.00208825
6.59,0.004466,-0.00492083
6.595,-0.00131642,-0.00663492
6.6,-0.00656767,-0.00866217
6.605,-0.0127056,-0.00760809
6.61,-0.0191833,-0.00304701
6.615,-0.0250391,0.00010844
6.62,-0.0312365,0.000876788
6.625,-0.039395,-0.00181633
6.63,-0.0480353,-0.00523243
6.635,-0.0540812,-0.00382967
6.64,-0.0580817,-0.00137803
6.645,-0.0629479,-0.000812865
6.65,-0.0694324,-0.000883792
6.655,-0.0759477,0.00145478
6.66,-0.0818325,-0.00146398
6.665,-0.0876295,-0.00561141
6.67,-0.0932907,-0.00860266
6.675,-0.0989297,-0.00736757
6.68,-0.106272,-0.00427161
6.685,-0.11571,-0.00255361
6.69,-0.124876,-0.00247344
6.695,-0.131521,-0.000758317
6.7,-0.135944,-0.00243446
6.705,-0.140401,-0.00391743
6.71,-0.145572,-0.0041841
6.715,-0.150827,-0.00552475
6.72,-0.156071,-0.000413027
6.725,-0.161705,-8.59E-05
6.73,-0.167458,-0.00429356
6.735,-0.172044,-0.00156753
6.74,-0.174983,-0.000430455
6.745,-0.176867,-0.00476477
6.75,-0.177093,-0.0081306
6.755,-0.173609,-0.00459052
6.76,-0.165361,-0.000970296
6.765,-0.154286,-0.00178179
6.77,-0.144037,-0.00253613
6.775,-0.13677,-0.00589469
6.78,-0.130361,-0.00547201
6.785,-0.119917,-0.00428334
6.79,-0.100221,-0.000867377
6.795,-0.0697875,-0.000612603
6.8,-0.0341498,-0.00482485
6.805,-0.00266963,-0.00632163
6.81,0.0185031,-0.00638126
6.815,0.0286008,2.81E-05
6.82,0.0284221,-0.00124012
6.825,0.0180135,-0.00154908
6.83,-0.00365068,-0.0022023
6.835,-0.0376548,-0.00100213
6.84,-0.0820864,-0.00145337
6.845,-0.131223,-0.00351867
6.85,-0.176843,-0.00671752
6.855,-0.213455,-0.00253775
6.86,-0.240948,-0.00129454
6.865,-0.261727,-0.00236318
6.87,-0.276959,-0.00586999
6.875,-0.286949,-0.00616152
6.88,-0.293757,-0.00593968
6.885,-0.300287,-0.00965553
6.89,-0.308096,-0.00426633
6.895,-0.316227,0.000278644
6.9,-0.323773,-0.000167656
6.905,-0.331084,-0.00043489
6.91,-0.337313,-0.00213602
6.915,-0.340868,0.000975984
6.92,-0.342175,-0.00188029
6.925,-0.343024,-0.00142642
6.93,-0.343875,-0.00137167
6.935,-0.348269,-0.004587
6.94,-0.366091,-0.00633225
6.945,-0.397711,-0.0097192
6.95,-0.412775,-0.0118869
6.955,-0.35921,-0.006313
6.96,-0.182337,-0.00348605
6.965,0.141024,-0.00327939
6.97,0.548044,-0.00334925
6.975,0.908845,1.07E-05
6.98,1.10929,0.00769216
6.985,1.10841,0.00866764
6.99,0.943266,0.00211321
6.995,0.695401,0.0026901
7,0.441112,0.00133867
7.005,0.227444,-0.0279676
7.01,0.0713502,-0.0296702
7.015,-0.0307948,-0.0173898
7.02,-0.0935572,-0.00343914
7.025,-0.132791,0.0237334
7.03,-0.158881,0.0297823
7.035,-0.176369,0.0111655
7.04,-0.187712,-0.0161023
7.045,-0.195673,-0.0168336
7.05,-0.200172,-0.00999495
7.055,-0.199683,0.000602969
7.06,-0.195706,-0.00704931
7.065,-0.190653,-0.00554816
7.07,-0.18443,0.0033226
7.075,-0.175854,0.000961988
7.08,-0.165233,-0.00292695
7.085,-0.153524,-0.00540001
7.09,-0.140636,-0.00414186
7.095,-0.12611,-0.00406134
7.1,-0.110783,-0.00656063
7.105,-0.0956786,-0.00683599
7.11,-0.0798923,-0.00730791
7.115,-0.0628792,-0.00926872
7.12,-0.0447037,-0.00662024
7.125,-0.0250753,-0.00383069
7.13,-0.0033184,-0.00277061
7.135,0.020413,0.000157448
7.14,0.0443665,0.00116695
7.145,0.0668748,-8.72E-05
7.15,0.0877175,-0.000982514
7.155,0.107458,0.000626942
7.16,0.126362,-0.00175772
7.165,0.143839,-0.00707192
7.17,0.15961,-0.00222343
7.175,0.173699,-0.00278143
7.18,0.183939,-0.00482194
7.185,0.1862,-0.00591159
7.19,0.178626,-0.00455707
7.195,0.162534,-0.00455682
7.2,0.13805,-0.0013109
7.205,0.104881,-0.00169482
7.21,0.065383,-0.00186663
7.215,0.0228369,-0.0024381
7.22,-0.0206243,-0.00265289
7.225,-0.062788,-0.00363099
7.23,-0.100946,-0.00308043
7.235,-0.133079,-0.000910457
7.24,-0.159139,-0.00147686
7.245,-0.180501,-0.00635475
7.25,-0.197771,-0.0074879
7.255,-0.210307,-0.0044199
7.26,-0.218711,-0.00304258
7.265,-0.224728,-0.00339905
7.27,-0.229229,-0.0048471
7.275,-0.232039,-0.00606706
7.28,-0.233894,-0.00443733
7.285,-0.235748,0.00152828
7.29,-0.237373,0.000347126
7.295,-0.237829,-0.00187661
7.3,-0.237643,0.00279138
7.305,-0.238067,0.00612758
7.31,-0.238896,-0.0231736
7.315,-0.238438,-0.0315588
7.32,-0.236317,0.0172273
7.325,-0.233612,0.000734871
7.33,-0.230198,0.00619449
7.335,-0.225471,0.00588253
7.34,-0.221053,0.00141416
7.345,-0.218707,-0.00679808
7.35,-0.217779,-0.00659072
7.355,-0.215921,-0.00534321
7.36,-0.21279,-0.0067395
7.365,-0.210149,-0.00249496
7.37,-0.207628,-0.00676161
7.375,-0.203235,-0.00561646
7.38,-0.198025,-0.00563576
7.385,-0.194331,-0.00352459
7.39,-0.192693,-0.00060216
7.395,-0.192476,-0.00255706
7.4,-0.193225,-0.00574168
7.405,-0.195005,-0.00153169
7.41,-0.196402,-0.00550084
7.415,-0.195826,-0.00701454
7.42,-0.19419,-0.000646522
7.425,-0.193295,-0.000623186
7.43,-0.192904,-0.00363574
7.435,-0.191777,-0.00140227
7.44,-0.190299,-0.000571479
7.445,-0.189584,-0.00171006
7.45,-0.189456,-0.00355067
7.455,-0.189458,-0.00192847
7.46,-0.190235,-0.00424125
7.465,-0.192059,-0.0072737
7.47,-0.19378,-0.00435771
7.475,-0.194099,-0.00141411
7.48,-0.193202,-0.000286344
7.485,-0.19239,-0.00344311
7.49,-0.192361,-0.00611944
7.495,-0.19282,-0.00650278
7.5,-0.193738,-0.00866007
7.505,-0.195314,-0.00178084
7.51,-0.196665,0.0024965
7.515,-0.196543,3.29E-05
7.52,-0.195694,-0.000809575
7.525,-0.196015,-0.00146988
7.53,-0.197521,-0.00361971
7.535,-0.198542,-0.00208341
7.54,-0.198147,-0.0024545
7.545,-0.197098,-0.00255237
7.55,-0.196282,-0.00288425
7.555,-0.195089,-0.00344338
7.56,-0.194084,-0.00338493
7.565,-0.194313,-0.0055186
7.57,-0.194031,-0.00567496
7.575,-0.190735,-0.00200295
7.58,-0.185099,-0.00525685
7.585,-0.179801,-0.00770473
7.59,-0.17539,-0.00689406
7.595,-0.171208,-0.00370471
7.6,-0.168078,-0.00104371
7.605,-0.166712,-0.00142291
7.61,-0.166068,-0.00292848
7.615,-0.164251,-0.00193658
7.62,-0.160858,-0.000940161
7.625,-0.156759,-0.00315269
7.63,-0.151976,-0.003723
7.635,-0.146185,-0.00496478
7.64,-0.14076,-0.00405712
7.645,-0.13554,-0.000546607
7.65,-0.126292,0.000428072
7.655,-0.10977,-0.0023848
7.66,-0.0887083,-0.00391217
7.665,-0.0690169,-0.00176671
7.67,-0.0520444,-0.00397421
7.675,-0.0338152,-0.00517873
7.68,-0.0101279,-0.00690089
7.685,0.0208485,-0.00841205
7.69,0.0586017,-0.00876552
7.695,0.0985578,-0.0015662
7.7,0.132485,-0.000180038
7.705,0.154681,0.00452673
7.71,0.16543,-0.000909929
7.715,0.167637,-0.00100686
7.72,0.160941,-0.00210338
7.725,0.142271,-0.00334003
7.73,0.112608,-0.00648653
7.735,0.0779611,-0.00507633
7.74,0.044011,-0.00324351
7.745,0.0144523,-0.00124337
7.75,-0.00793811,-0.0019818
7.755,-0.022371,-0.00112841
7.76,-0.0316384,-0.0055427
7.765,-0.0394422,-0.00693905
7.77,-0.045998,-0.00696338
7.775,-0.0499869,-0.00486135
7.78,-0.0516391,-0.00294282
7.785,-0.0522724,0.00041467
7.79,-0.0522882,-0.00218909
7.795,-0.0520588,-0.00111573
7.8,-0.0526372,-0.00307623
7.805,-0.0546824,-0.00499339
7.81,-0.0569722,-0.00400871
7.815,-0.0571859,-0.00205796
7.82,-0.0548768,-0.00267764
7.825,-0.0545041,-0.00263686
7.83,-0.0637867,-0.00493404
7.835,-0.0833487,-0.00480601
7.84,-0.0897106,-0.00519953
7.845,-0.0388154,-0.00916465
7.85,0.119371,-0.00560438
7.855,0.414167,-0.0042313
7.86,0.798011,-0.0042003
7.865,1.15318,0.00236282
7.87,1.36965,0.0182469
7.875,1.39929,0.0103105
7.88,1.26191,-0.00670634
7.885,1.0271,-0.0024388
7.89,0.774021,-0.00538194
7.895,0.558406,-0.0320626
7.9,0.401423,-0.0208784
7.905,0.298395,0.00064003
7.91,0.234498,-0.00239763
7.915,0.194829,0.00774632
7.92,0.168205,0.0161084
7.925,0.148219,0.00526584
7.93,0.133714,-0.00817303
7.935,0.125997,-0.0188251
7.94,0.124237,-0.0106042
7.945,0.125935,0.00109636
7.95,0.129334,0.0046114
7.955,0.134339,0.00578197
7.96,0.140286,2.68E-05
7.965,0.145969,-0.00546486
7.97,0.152457,-0.00813412
7.975,0.161289,-0.00775088
7.98,0.1719,-0.00330929
7.985,0.182538,-0.00229589
7.99,0.193389,-0.00562287
7.995,0.206428,-0.00232818
8,0.221993,-0.00429237
8.005,0.238353,-0.00688221
8.01,0.254915,-0.00434597
8.015,0.271821,-0.00594246
8.02,0.28912,-0.00583211
8.025,0.30774,-0.00229067
8.03,0.328971,0.000510014
8.035,0.353377,0.00242307
8.04,0.379406,0.00121765
8.045,0.404164,-0.00390811
8.05,0.42604,-0.00294849
8.055,0.444782,-0.00559206
8.06,0.46021,-0.00992564
8.065,0.472183,-0.0114181
8.07,0.481053,-0.00232175
8.075,0.486777,0.00111638
8.08,0.487175,-0.000751288
8.085,0.478684,-0.00171086
8.09,0.45963,-0.00208085
8.095,0.431,-0.00402314
8.1,0.394185,-0.00390169
8.105,0.350636,-0.00196119
8.11,0.303268,-0.00146695
8.115,0.2563,-0.0028792
8.12,0.213203,-0.000799723
8.125,0.17569,-0.00344129
8.13,0.144976,-0.00656366
8.135,0.121775,-0.00490455
8.14,0.104911,-0.00143648
8.145,0.0917523,-0.00237795
8.15,0.0810814,-0.00521528
8.155,0.0729881,-0.00561294
8.16,0.066557,-0.00228912
8.165,0.0600143,-0.00014965
8.17,0.0532744,-0.000404085
8.175,0.0475414,-0.00478588
8.18,0.0435524,-0.00334584
8.185,0.0406648,-0.00434599
8.19,0.0383334,-0.00849188
8.195,0.0363972,-0.00401616
8.2,0.0340279,0.00524242
8.205,0.0303895,0.0108114
8.21,0.0264257,-0.0325637
8.215,0.0229344,-0.00184947
8.22,0.0198104,0.0084712
8.225,0.0165688,0.00155794
8.23,0.0138789,-0.00218327
8.235,0.0130619,-0.00361352
8.24,0.013905,-0.00332238
8.245,0.0148769,-0.0072436
8.25,0.0155565,-0.0038553
8.255,0.0166304,-0.00190575
8.26,0.0182777,-0.00466782
8.265,0.0198702,-0.00413056
8.27,0.0221495,-0.00357214
8.275,0.0264123,-0.00462217
8.28,0.0316423,-0.00525356
8.285,0.0352392,-0.00485062
8.29,0.0376655,-0.0029586
8.295,0.0409416,-0.00292684
8.3,0.0452556,-0.0019667
8.305,0.0487771,0.000144119
8.31,0.0504571,-0.00201345
8.315,0.0513925,-0.00242572
8.32,0.0515409,-0.00313562
8.325,0.0494324,-0.00386999
8.33,0.044854,-0.00269314
8.335,0.0390287,-0.00302128
8.34,0.0324021,-0.00461262
8.345,0.0248658,-0.00417338
8.35,0.0177301,-0.00333291
8.355,0.0121922,-0.00242058
8.36,0.00651522,-0.0020216
8.365,-0.00190037,-0.00213865
8.37,-0.012321,-0.00449674
8.375,-0.0216593,-0.00526732
8.38,-0.0294641,-0.00589603
8.385,-0.0375681,-0.00471987
8.39,-0.0463703,-0.00114095
8.395,-0.0546373,-0.0022355
8.4,-0.0621063,8.22E-05
8.405,-0.0690331,-0.000969684
8.41,-0.0750545,-0.00455812
8.415,-0.07973,-0.00562654
8.42,-0.083947,-0.00405964
8.425,-0.0894622,-0.00195571
8.43,-0.0959968,-0.00103795
8.435,-0.101504,-0.0015342
8.44,-0.105812,-0.00176141
8.445,-0.110113,-0.00377489
8.45,-0.113975,-0.0110872
8.455,-0.11656,-0.00739759
8.46,-0.118949,-0.00262287
8.465,-0.122523,-0.00254386
8.47,-0.12632,-0.000195561
8.475,-0.128812,0.00168931
8.48,-0.130119,0.00156835
8.485,-0.131434,-0.000264553
8.49,-0.13298,-0.00559768
8.495,-0.134004,-0.00683671
8.5,-0.134828,-0.0115195
8.505,-0.136828,-0.00448092
8.51,-0.139748,0.00122476
8.515,-0.142156,-0.00273266
8.52,-0.143924,-0.00250149
8.525,-0.146359,0.00258587
8.53,-0.149732,0.000856921
8.535,-0.152972,-0.00504176
8.54,-0.15536,-0.0105732
8.545,-0.157366,-0.00879189
8.55,-0.159099,-0.0051266
8.555,-0.160066,-0.00195907
8.56,-0.159536,0.000340814
8.565,-0.155389,0.00140933
8.57,-0.144806,-0.00140138
8.575,-0.129003,-0.00667191
8.58,-0.113972,-0.00337872
8.585,-0.102822,7.11E-05
8.59,-0.091628,0.0031024
8.595,-0.0745345,-0.00903186
8.6,-0.0491513,-0.0152141
8.605,-0.0174436,-0.00593127
8.61,0.0157777,-0.00832422
8.615,0.0440188,6.63E-05
8.62,0.0615946,-0.00155259
8.625,0.0661148,0.000862838
8.63,0.05905,0.00416721
8.635,0.0420681,0.00272441
8.64,0.0140934,-0.00155487
8.645,-0.0251614,-0.00177068
8.65,-0.0710525,-0.00099042
8.655,-0.116277,-0.00499087
8.66,-0.15634,-0.00682102
8.665,-0.190371,-0.00590803
8.67,-0.217733,-0.00459655
8.675,-0.237844,-0.00444047
8.68,-0.252028,-0.0103941
8.685,-0.26322,-0.00855885
8.69,-0.273135,-0.00466009
8.695,-0.281808,-0.000514542
8.7,-0.290585,0.00194258
8.705,-0.300944,0.0014488
8.71,-0.311031,-0.00165823
8.715,-0.3183,-0.00531943
8.72,-0.322808,-0.00237408
8.725,-0.326244,-0.000675749
8.73,-0.329539,-0.000487887
8.735,-0.331131,-0.00146095
8.74,-0.330088,-0.00257284
8.745,-0.331831,-0.00526668
8.75,-0.343831,-0.00708783
8.755,-0.358035,-0.0065168
8.76,-0.340976,-0.00874161
8.765,-0.246664,-0.0105637
8.77,-0.0310149,-0.00701635
8.775,0.303916,-0.00214646
8.78,0.672654,-0.00354033
8.785,0.956337,0.00826248
8.79,1.07545,0.017614
8.795,1.01673,0.00479723
8.8,0.825758,-0.00261565
8.805,0.577093,-0.00201338
8.81,0.338997,-0.0230722
8.815,0.150608,-0.0260546
8.82,0.0193605,-0.00870295
8.825,-0.0656434,0.00169141
8.83,-0.118855,0.00427668
8.835,-0.151951,0.0119998
8.84,-0.173989,0.00865116
8.845,-0.190504,-0.00130565
8.85,-0.202508,-0.00974545
8.855,-0.209448,-0.0163308
8.86,-0.212265,-0.00567531
8.865,-0.212501,0.00075464
8.87,-0.210377,0.0035165
8.875,-0.205256,0.000112586
8.88,-0.197877,-0.00594119
8.885,-0.189963,-0.00524572
8.89,-0.181735,-0.00649086
8.895,-0.172142,-0.00725057
8.9,-0.161604,-0.00278351
8.905,-0.151511,-0.00221333
8.91,-0.141116,-0.00603309
8.915,-0.128346,-0.0072442
8.92,-0.112918,-0.0033761
8.925,-0.0960227,-0.00132828
8.93,-0.0775348,-0.00034799
8.935,-0.0563628,-0.00474865
8.94,-0.0333269,-0.000449028
8.945,-0.00979753,-0.00122513
8.95,0.0149016,-0.00134628
8.955,0.041814,-0.00147574
8.96,0.0693464,-0.00184865
8.965,0.0943529,-0.00443661
8.97,0.115507,-0.00841253
8.975,0.133873,-0.00758756
8.98,0.149658,-0.00700367
8.985,0.161254,-0.00354926
8.99,0.168064,-0.00229069
8.995,0.169796,0.00225219
9,0.164289,-0.000634393
9.005,0.148713,-0.000844214
9.01,0.122521,0.000350004
9.015,0.0874447,-0.00136443
9.02,0.0447552,-0.00370467
9.025,-0.0034272,-0.00564613
9.03,-0.0524882,-0.00508784
9.035,-0.0978104,-0.00586038
9.04,-0.137943,-0.00399859
9.045,-0.173631,-0.000968559
9.05,-0.204415,-0.00245856
9.055,-0.228756,-0.00400789
9.06,-0.247292,-0.00401044
9.065,-0.262182,-0.00402323
9.07,-0.27473,-0.00464383
9.075,-0.284572,-0.00383634
9.08,-0.292047,-0.00413409
9.085,-0.298287,-0.00457289
9.09,-0.302929,-0.00709405
9.095,-0.304621,-0.0024226
9.1,-0.304085,-0.0028637
9.105,-0.303444,-0.0014677
9.11,-0.303392,0.00360541
9.115,-0.30286,0.0102387
9.12,-0.301415,0.0064446
9.125,-0.299608,-0.0375392
9.13,-0.297059,-0.0154965
9.135,-0.292213,0.0108328
9.14,-0.285956,0.00648218
9.145,-0.281241,0.00217492
9.15,-0.278006,0.00636116
9.155,-0.273973,-0.00464943
9.16,-0.269374,-0.013435
9.165,-0.266267,-0.0126415
9.17,-0.264434,-0.00625253
9.175,-0.262291,-0.000492275
9.18,-0.259348,0.00128295
9.185,-0.256223,0.000906289
9.19,-0.253774,-0.00475421
9.195,-0.252162,-0.00731248
9.2,-0.251635,-0.0073526
9.205,-0.252333,-0.00750398
9.21,-0.252983,-0.00513939
9.215,-0.251584,0.00163322
9.22,-0.248146,0.00267038
9.225,-0.245063,0.00293513
9.23,-0.243422,-0.00219304
9.235,-0.242014,-0.00409645
9.24,-0.239879,-0.00239817
9.245,-0.237635,-0.0055816
9.25,-0.236313,-0.00559405
9.255,-0.235841,-0.00503223
9.26,-0.235765,-0.00601438
9.265,-0.236385,-0.0076241
9.27,-0.237539,-0.00673725
9.275,-0.238169,-0.00250951
9.28,-0.238098,-0.000915499
9.285,-0.237984,0.00026999
9.29,-0.237915,0.00172918
9.295,-0.237238,0.00166915
9.3,-0.235738,-0.00113172
9.305,-0.234337,-0.00339294
9.31,-0.233308,-0.00279408
9.315,-0.231446,-0.0045946
9.32,-0.228705,-0.00185618
9.325,-0.226865,-0.00279937
9.33,-0.22673,-0.00813274
9.335,-0.227017,-0.00762109
9.34,-0.226396,-0.00871273
9.345,-0.225095,-0.00304888
9.35,-0.223556,-0.000783877
9.355,-0.221635,-0.00387151
9.36,-0.219899,-0.00449856
9.365,-0.218858,-0.00258165
9.37,-0.217784,0.000884087
9.375,-0.215241,0.00136686
9.38,-0.211826,-0.00178968
9.385,-0.209475,-0.00305374
9.39,-0.208116,-0.00212021
9.395,-0.205731,-0.0037364
9.4,-0.202171,-0.00469158
9.405,-0.198971,-0.00414188
9.41,-0.196218,-0.00639067
9.415,-0.192749,-0.00484601
9.42,-0.188806,-0.0021351
9.425,-0.185301,-0.00106195
9.43,-0.182727,-0.00518551
9.435,-0.180679,-0.0051948
9.44,-0.178706,-0.000647279
9.445,-0.177245,-0.00270162
9.45,-0.17549,-0.00460269
9.455,-0.171524,-0.004265
9.46,-0.165439,-0.00113897
9.465,-0.159534,1.50E-05
9.47,-0.154695,-0.00282435
9.475,-0.149942,-0.0053003
9.48,-0.145806,-0.00603351
9.485,-0.143111,-0.00216555
9.49,-0.140681,-0.00350527
9.495,-0.135731,-0.00505605
9.5,-0.125848,-0.00380762
9.505,-0.110383,-0.00215667
9.51,-0.0904438,-0.00289551
9.515,-0.0690846,-0.00252243
9.52,-0.0503682,-7.69E-05
9.525,-0.0346443,-0.00103894
9.53,-0.0165346,-0.0022371
9.535,0.00989496,-0.00469584
9.54,0.0448228,-0.00381939
9.545,0.0826699,-0.00431725
9.55,0.116491,-0.00296418
9.555,0.141345,-0.00500375
9.56,0.156812,-0.00676587
9.565,0.163833,-0.00645168
9.57,0.162388,-0.00555974
9.575,0.151151,-0.00177464
9.58,0.12754,-0.000586368
9.585,0.0924072,-0.00639441
9.59,0.0524011,-0.00192069
9.595,0.0160167,-0.000298977
9.6,-0.0122749,0.00362868
9.605,-0.0333429,0.000975478
9.61,-0.0492634,-0.00460834
9.615,-0.0600809,-0.00576422
9.62,-0.0660995,-0.00568232
9.625,-0.0695247,-0.00448417
9.63,-0.0730716,-0.00362706
9.635,-0.0777464,-0.00410097
9.64,-0.0831877,-0.00294384
9.645,-0.08882,-0.00153467
9.65,-0.092644,-0.00137738
9.655,-0.0923949,-0.00364121
9.66,-0.089131,-0.00292469
9.665,-0.0854451,-0.0017211
9.67,-0.0818223,-0.00257585
9.675,-0.0765141,-0.00388404
9.68,-0.0715753,-0.00229842
9.685,-0.0751602,-0.00518088
9.69,-0.0911283,-0.00671229
9.695,-0.0998386,-0.00740803
9.7,-0.0587285,-0.0076863
9.705,0.0824615,-0.00546061
9.71,0.361632,-0.00555258
9.715,0.748242,-0.00672657
9.72,1.13109,-0.00179947
9.725,1.38718,0.0132721
9.73,1.45176,0.00632142
9.735,1.33703,0.0034005
9.74,1.11153,0.00480919
9.745,0.855824,-0.00574027
9.75,0.629777,-0.0348125
9.755,0.460963,-0.0257494
9.76,0.349322,0.000764568
9.765,0.280156,0.00503555
9.77,0.237685,0.0118
9.775,0.211715,0.0213177
9.78,0.195558,0.00697725
9.785,0.1845,-0.00908761
9.79,0.175529,-0.0216237
9.795,0.168523,-0.0176746
9.8,0.164779,0.00293562
9.805,0.164751,0.00566231
9.81,0.168159,-0.0024539
9.815,0.174851,4.27E-05
9.82,0.183489,-0.00108811
9.825,0.192185,-0.00424696
9.83,0.200936,-0.00812853
9.835,0.210634,-0.0047003
9.84,0.221195,-0.0023338
9.845,0.231198,-0.00438847
9.85,0.241432,-0.00772432
9.855,0.254696,-0.0111722
9.86,0.271226,-0.00997981
9.865,0.288827,-0.00748621
9.87,0.307007,-0.00242032
9.875,0.327213,-0.0010686
9.88,0.350271,0.00183219
9.885,0.37532,0.00193438
9.89,0.401429,0.00403551
9.895,0.428127,0.00138929
9.9,0.454557,0.00149182
9.905,0.478996,-0.00394769
9.91,0.500832,-0.00526682
9.915,0.520064,-0.00418466
9.92,0.535973,-0.00535314
9.925,0.547743,-0.0069953
9.93,0.553914,-0.00618869
9.935,0.552619,-0.00523062
9.94,0.54172,-0.00122001
9.945,0.518534,-0.00228815
9.95,0.483304,-0.00386584
9.955,0.439993,-0.00479284
9.96,0.392205,-0.00412291
9.965,0.341311,-0.00292891
9.97,0.289886,-0.00344104
9.975,0.242191,-0.00285386
9.98,0.200317,0.000686909
9.985,0.163317,-0.00581968
9.99,0.130963,-0.00307684
9.995,0.104683,-0.00464833
10,0.0848195,0.000354998
10.005,0.0696295,-0.00224852
10.01,0.0580181,-0.00254777
10.015,0.0502467,-0.00690582
10.02,0.0451898,-0.00609986
10.025,0.0411897,-0.00211067
10.03,0.0382222,-0.00208954
10.035,0.0373462,-0.0042693
10.04,0.0382722,-0.0035391
10.045,0.0389777,-0.000658328
10.05,0.0384683,0.00592333
10.055,0.0378326,0.0100485
10.06,0.0381114,-0.0275568
10.065,0.0391226,-0.0236131
10.07,0.0407767,0.0127106
10.075,0.0431962,0.00279545
10.08,0.0451477,0.00528555
10.085,0.0451188,-0.00370366
10.09,0.0436844,-0.00612744
10.095,0.0425736,-0.00489234
10.1,0.0425142,-0.00224815
10.105,0.0427675,-0.00243935
10.11,0.0433244,-0.00270475
10.115,0.0453375,-0.0069258
10.12,0.0484656,-0.00399568
10.125,0.0511963,-0.00578401
10.13,0.0526839,-0.00645377
10.135,0.0539778,-0.00638598
10.14,0.056253,-0.000423788
10.145,0.0587705,-0.000100141
10.15,0.0611205,-0.00192271
10.155,0.0643173,-0.00158824
10.16,0.0676843,-0.00132593
10.165,0.0694051,-0.00182208
10.17,0.0695189,-0.00486265
10.175,0.0699824,-0.00570266
10.18,0.0711266,-0.00450713
10.185,0.0716846,-0.00234481
10.19,0.071605,-0.000152842
10.195,0.0719503,-0.000571786
10.2,0.0728405,-0.0101735
10.205,0.073107,-0.00313206
10.21,0.0730001,-0.00310795
10.215,0.0739176,-0.00278176
10.22,0.0756344,-0.00284395
10.225,0.076591,-0.00310069
10.23,0.0766917,-0.00195053
10.235,0.0772265,-0.00146893
10.24,0.0784143,-0.0019921
10.245,0.0792833,-0.000569066
10.25,0.0798551,-0.00412393
10.255,0.0814884,-0.00977729
10.26,0.0841219,-0.00650022
10.265,0.0861902,0.00100267
10.27,0.0876562,0.00225342
10.275,0.0901643,-0.00500425
10.28,0.0939495,-0.00394513
10.285,0.0975269,-0.000922634
10.29,0.10056,-0.00402834
10.295,0.103829,-0.00620079
10.3,0.106578,-0.00583594
10.305,0.107361,-0.00520974
10.31,0.106905,-0.00450346
10.315,0.107042,-0.00163635
10.32,0.106951,-8.77E-05
10.325,0.104859,-0.000398683
10.33,0.101638,-0.00241918
10.335,0.099637,-0.00181659
10.34,0.0996045,-0.00101135
10.345,0.100743,-0.00515543
10.35,0.102612,-0.00458573
10.355,0.105139,-0.00250759
10.36,0.107562,-0.00408252
10.365,0.108691,-0.0032135
10.37,0.108529,-0.00474592
10.375,0.108538,-0.0055331
10.38,0.109651,-0.00416257
10.385,0.110881,-0.00841566
10.39,0.111171,-0.00775975
10.395,0.111093,-0.00175264
10.4,0.11172,0.0023414
10.405,0.113676,-0.000826951
10.41,0.118073,0.00352177
10.415,0.126747,-0.000293712
10.42,0.13975,-0.0032859
10.425,0.154378,-0.00894771
10.43,0.167725,-0.00812531
10.435,0.180503,-0.00102491
10.44,0.196404,-0.000592244
10.445,0.218223,-0.00145429
10.45,0.247593,-0.00340463
10.455,0.283869,-0.00659757
10.46,0.320883,-0.00665263
10.465,0.349733,-0.00532515
10.47,0.366284,-0.00435383
10.475,0.371877,-5.34E-05
10.48,0.368036,-0.000470745
10.485,0.353984,-0.00217566
10.49,0.32758,-0.00363642
10.495,0.28955,-0.00904123
10.5,0.243951,-0.00417832
10.505,0.196317,0.00110987
10.51,0.152843,0.00170034
10.515,0.117532,0.000727433
10.52,0.090384,-0.000336878
10.525,0.0690717,-0.0041282
10.53,0.0514548,-0.0112796
10.535,0.0370386,-0.00924656
10.54,0.0249109,-0.00409735
10.545,0.01303,-0.00371426
10.55,0.000952587,-0.00054214
10.555,-0.0106334,0.00167835
10.56,-0.0218834,0.00105394
10.565,-0.0331104,-0.0030725
10.57,-0.0434596,-0.00530713
10.575,-0.0520549,-0.00161666
10.58,-0.0588731,-0.00108745
10.585,-0.0647279,-0.00247105
10.59,-0.0707539,-0.00581888
10.595,-0.0805416,-0.00398204
10.6,-0.102439,-0.0021948
10.605,-0.139481,-0.0046364
10.61,-0.167908,-0.0073091
10.615,-0.138213,-0.00854907
10.62,0.00623953,-0.0071544
10.625,0.300167,-0.00759689
10.63,0.699818,-0.0034036
10.635,1.08233,-0.00182228
10.64,1.3219,0.00651435
10.645,1.35814,0.00480707
10.65,1.21256,0.00628801
10.655,0.963502,0.00200295
10.66,0.694512,-0.00482252
10.665,0.462013,-0.0235695
10.67,0.289249,-0.0240165
10.675,0.174198,-0.018189
10.68,0.101412,0.00722614
10.685,0.0526003,0.0262417
10.69,0.0154724,0.0236528
10.695,-0.0132832,-0.00545787
10.7,-0.0341045,-0.0185521
10.705,-0.0483473,-0.0153243
10.71,-0.0569116,-0.00184226
10.715,-0.0601197,0.00375212
10.72,-0.0602387,-0.00545662
10.725,-0.0609047,-0.00137408
10.73,-0.0630292,0.00340752
10.735,-0.0649177,-0.00262935
10.74,-0.0649878,-0.00856044
10.745,-0.0626269,-0.00541801
10.75,-0.0571438,-0.00277526
10.755,-0.0476015,-0.000607624
10.76,-0.0358867,-0.00138819
10.765,-0.0245651,-0.00424167
10.77,-0.0147451,-0.00797589
10.775,-0.00554273,-0.0151436
10.78,0.00443753,-0.0170471
10.785,0.0153748,-0.0163376
10.79,0.0275517,-0.00038162
10.795,0.0425375,0.010224
10.8,0.060515,0.00422409
10.805,0.0794303,0.00510961
10.81,0.0978516,0.00407335
10.815,0.115499,0.00458291
10.82,0.13154,0.000898106
10.825,0.144734,-0.00409066
10.83,0.154515,-0.00926639
10.835,0.162017,-0.0100947
10.84,0.167496,-0.010174
10.845,0.168668,-0.00701271
10.85,0.162446,-0.00619201
10.855,0.147258,-0.00307781
10.86,0.121983,0.000891747
10.865,0.0857976,-0.000909926
10.87,0.0406697,-0.00180004
10.875,-0.00788765,0.000793184
10.88,-0.0555021,-0.000348647
10.885,-0.100751,0.00106693
10.89,-0.142438,-0.000536534
10.895,-0.17912,-0.00502977
10.9,-0.210091,-0.00872373
10.905,-0.236054,-0.0114032
10.91,-0.258379,-0.0121151
10.915,-0.27768,-0.00249435
10.92,-0.293838,0.00120026
10.925,-0.306933,-0.00519238
10.93,-0.316477,9.01E-05
10.935,-0.321862,0.00136933
10.94,-0.324433,-0.00190216
10.945,-0.327611,-0.00449392
10.95,-0.333045,-0.00361222
10.955,-0.338743,-0.000302642
10.96,-0.34253,0.00848245
10.965,-0.34456,0.00407195
10.97,-0.345177,-0.0360106
10.975,-0.343661,-0.0115742
10.98,-0.340634,0.0114525
10.985,-0.339007,0.00777886
10.99,-0.33962,0.000938241
10.995,-0.340069,-0.00499819
11,-0.338942,-0.00557241
11.005,-0.337609,-0.00406654
11.01,-0.336701,0.00143145
11.015,-0.33506,-0.00413347
11.02,-0.332588,-0.00554939
11.025,-0.330451,-0.00463791
11.03,-0.328604,-0.00522888
11.035,-0.326253,-0.00589649
11.04,-0.324043,-0.00765815
11.045,-0.323439,-0.00682357
11.05,-0.324274,-0.00620727
11.055,-0.324533,-0.00238198
11.06,-0.323451,0.000433254
11.065,-0.322587,0.00127983
11.07,-0.322037,0.00240378
11.075,-0.320338,-0.00136736
11.08,-0.317483,-0.000981122
11.085,-0.315319,-0.00413266
11.09,-0.314709,-0.00557703
11.095,-0.314647,-0.00644717
11.1,-0.314266,-0.0043517
11.105,-0.314485,-0.00361685
11.11,-0.315899,-0.00506774
11.115,-0.316979,-0.00220471
11.12,-0.317042,-0.00374634
11.125,-0.31735,-0.00549371
11.13,-0.318171,-0.00492722
11.135,-0.318348,-0.0037395
11.14,-0.317295,0.0017708
11.145,-0.316469,-0.00256031
11.15,-0.316505,-0.00366183
11.155,-0.31659,0.000225623
11.16,-0.31617,-0.00031706
11.165,-0.315113,-0.00336533
11.17,-0.313381,-0.00448125
11.175,-0.311456,-0.00529523
11.18,-0.309986,-0.00420438
11.185,-0.309787,-0.0021438
11.19,-0.310419,0.00150739
11.195,-0.309849,-0.00178064
11.2,-0.307634,-0.00399876
11.205,-0.305645,-0.00568759
11.21,-0.304344,-0.00850916
11.215,-0.302673,-0.00730623
11.22,-0.300129,-0.00275302
11.225,-0.2976,-0.00116258
11.23,-0.29554,0.000462006
11.235,-0.292796,-0.000773882
11.24,-0.288794,-0.00523428
11.245,-0.284676,-0.00675643
11.25,-0.281163,-0.00629554
11.255,-0.277715,-0.00316195
11.26,-0.274278,-0.00045927
11.265,-0.27172,-0.000338877
11.27,-0.269672,-0.00244514
11.275,-0.266439,0.000642142
11.28,-0.261116,-0.00147972
11.285,-0.254682,-0.00667506
11.29,-0.248364,-0.0087819
11.295,-0.24189,-0.00318313
11.3,-0.23519,-0.00347884
11.305,-0.228862,-0.00325564
11.31,-0.222672,-0.00229989
11.315,-0.21416,0.00237624
11.32,-0.201157,0.00137902
11.325,-0.184185,-0.00402322
11.33,-0.16557,-0.00743052
11.335,-0.147523,-0.00791159
11.34,-0.130058,-0.00443331
11.345,-0.111212,-0.00385175
11.35,-0.0874664,-0.00335223
11.355,-0.0562221,-0.00238058
11.36,-0.0201603,-0.00194289
11.365,0.0135343,-0.00425737
11.37,0.0385525,-0.00272966
11.375,0.0539992,-0.00406698
11.38,0.0612627,-0.00369533
11.385,0.0593276,0.000258874
11.39,0.0453419,0.00254384
11.395,0.0179188,-0.000139778
11.4,-0.0203383,-0.00355273
11.405,-0.0637099,-0.00395343
11.41,-0.10522,-0.00670695
11.415,-0.139108,-0.00706224
11.42,-0.163697,-0.00757947
11.425,-0.181134,-0.00739649
11.43,-0.193639,-0.00245092
11.435,-0.201993,-0.00299343
11.44,-0.207487,-0.000440095
11.445,-0.212748,0.000122259
11.45,-0.218915,-0.00270575
11.455,-0.224342,-0.00563041
11.46,-0.228266,-0.00671145
11.465,-0.231613,-0.000410161
11.47,-0.234068,0.00080793
11.475,-0.23463,-0.00036305
11.48,-0.233656,-0.00150763
11.485,-0.232191,-0.00257506
11.49,-0.230237,-0.0019046
11.495,-0.228003,-0.00413351
11.5,-0.230114,-0.00606352
11.505,-0.243905,-0.00742031
11.51,-0.263712,-0.00912216
11.515,-0.256307,-0.00798497
11.52,-0.173236,-0.00665275
11.525,0.0332224,-0.00507697
11.53,0.373847,-0.00386048
11.535,0.774895,-0.00284616
11.54,1.10916,0.0129789
11.545,1.27532,0.0153656
11.55,1.24403,0.00721576
11.555,1.05938,0.000252456
11.56,0.803281,-0.00119854
11.565,0.550621,-0.0294186
11.57,0.346337,-0.044916
11.575,0.202995,-0.0149288
11.58,0.111314,-0.00462397
11.585,0.0548633,0.00443803
11.59,0.0203453,0.0260923
11.595,-0.000930314,0.0330189
11.6,-0.0150419,0.00703986
11.605,-0.0254564,-0.0173349
11.61,-0.0325214,-0.0170175
11.615,-0.0351921,-0.00462567
11.62,-0.0339225,-0.00270115
11.625,-0.0304676,-0.00626698
11.63,-0.0248853,-0.00355775
11.635,-0.0162307,-0.00504079
11.64,-0.00529871,-0.00261223
11.645,0.00588904,-0.00283147
11.65,0.0165661,-0.00460474
11.655,0.0278424,-0.00328832
11.66,0.0409777,-0.000972061
11.665,0.0560385,-0.00513147
11.67,0.0721713,-0.00496194
11.675,0.0894976,-0.00230806
11.68,0.10821,-0.00523404
11.685,0.127435,-0.00377988
11.69,0.147022,-0.00680693
11.695,0.168401,-0.00809719
11.7,0.192245,-0.00286695
11.705,0.216826,-0.00300268
11.71,0.240677,-0.00168134
11.715,0.264497,0.000161218
11.72,0.288553,-0.000197605
11.725,0.311713,-0.000165357
11.73,0.333003,-0.00104179
11.735,0.351726,-0.00215267
11.74,0.366438,-0.00448406
11.745,0.374915,-0.00547156
11.75,0.376676,-0.00410133
11.755,0.372427,-0.00529326
11.76,0.36081,-0.00345817
11.765,0.339284,-0.00327351
11.77,0.308109,-0.00433515
11.775,0.269994,-0.00146991
11.78,0.227559,-0.00345089
11.785,0.183841,-0.00313614
11.79,0.142819,-0.00286281
11.795,0.107679,-0.00208346
11.8,0.0794017,-0.00588452
11.805,0.0569675,-0.00715451
11.81,0.0391202,-0.00314076
11.815,0.0248356,-0.000293791
11.82,0.0134252,-0.000823023
11.825,0.00417038,-0.00355871
11.83,-0.00302614,-0.00157837
11.835,-0.00686105,-0.00047528
11.84,-0.007339,-0.00528453
11.845,-0.0069262,-0.00956335
11.85,-0.00689065,-0.0028809
11.855,-0.0054888,0.00100493
11.86,-0.00210027,-0.00533711
11.865,0.00123402,-0.000429216
11.87,0.00286955,0.00729206
11.875,0.00374538,0.00707095
11.88,0.00493793,-0.0364335
11.885,0.00646129,-0.00744494
11.89,0.00894997,0.0100817
11.895,0.0133917,0.00226043
11.9,0.019413,0.000968202
11.905,0.0250106,0.00452533
11.91,0.0290462,-0.00486668
11.915,0.0324567,-0.0132978
11.92,0.0358432,-0.0123493
11.925,0.0380748,-0.00529755
11.93,0.0396368,-0.000106379
11.935,0.0425679,-0.000583575
11.94,0.0470103,-0.00145419
11.945,0.0516097,-0.000752233
11.95,0.0561809,-0.00763936
11.955,0.0612522,-0.0102856
11.96,0.0667397,-0.00147091
11.965,0.0713956,-0.000286788
11.97,0.075134,0.000644342
11.975,0.0789652,0.0025152
11.98,0.083136,-0.00061798
11.985,0.0865385,-0.0039248
11.99,0.0887768,-0.00850221
11.995,0.0907635,-0.00968378
12,0.0930481,-0.00155732
12.005,0.0948406,0.000937479
12.01,0.0953002,-0.00373467
12.015,0.0952047,-0.00495624
12.02,0.0952845,-0.00600791
12.025,0.0952192,-0.0039096
12.03,0.0954247,-0.00417957
12.035,0.0971641,-0.00340808
12.04,0.100002,-0.001206
12.045,0.102265,0.000265208
12.05,0.103432,0.00168746
12.055,0.104695,0.000704169
12.06,0.106517,-0.000633158
12.065,0.108166,-0.00638965
12.07,0.109157,-0.00653301
12.075,0.11015,-0.00509976
12.08,0.111514,-0.00277933
12.085,0.112929,-0.00296097
12.09,0.115014,-0.00279988
12.095,0.118777,-0.00453935
12.1,0.123544,-0.00494862
12.105,0.126823,-0.00414605
12.11,0.128007,-0.0081552
12.115,0.129013,-0.00564037
12.12,0.131236,0.000914235
12.125,0.134335,0.00108448
12.13,0.137279,-0.00180086
12.135,0.139786,-0.00112926
12.14,0.141869,-0.00326029
12.145,0.142432,-0.00371924
12.15,0.140459,-0.00225401
12.155,0.137056,-0.00620661
12.16,0.133752,-0.00303605
12.165,0.130423,-0.00385753
12.17,0.126974,-0.00664527
12.175,0.124852,-0.00555053
12.18,0.124539,-0.00177854
12.185,0.123649,-0.00152956
12.19,0.120389,-0.00399805
12.195,0.115728,-0.00227564
12.2,0.110918,-0.00309303
12.205,0.105637,-0.00321607
12.21,0.100142,-0.00134259
12.215,0.0958091,-0.00161542
12.22,0.0927042,-0.000612807
12.225,0.0888422,-0.00245465
12.23,0.083122,-0.00273329
12.235,0.0769386,-0.0059484
12.24,0.0717402,-0.00671971
12.245,0.0662054,-0.00217164
12.25,0.0587834,-0.0017838
12.255,0.0512427,-0.00289947
12.26,0.0452498,-0.00396141
12.265,0.0403285,-0.00246297
12.27,0.0360257,-0.00873133
12.275,0.0326329,-0.00902967
12.28,0.0302826,-0.000509251
12.285,0.0283782,0.00395635
12.29,0.0286612,6.89E-05
12.295,0.0346387,-0.00246815
12.3,0.04664,-0.00690434
12.305,0.0598459,-0.00568721
12.31,0.070119,-0.00647907
12.315,0.0795074,-0.00398582
12.32,0.092356,-0.00196969
12.325,0.111034,-0.000502757
12.33,0.136844,-0.000142649
12.335,0.168238,-0.00136838
12.34,0.198089,0.00172278
12.345,0.217981,-0.00366214
12.35,0.225786,-0.0103707
12.355,0.224426,-0.00691548
12.36,0.215046,-0.00490288
12.365,0.194381,-0.00361937
12.37,0.160417,-0.00175667
12.375,0.117227,-0.00281965
12.38,0.071051,-0.00576128
12.385,0.0264883,-0.0047666
12.39,-0.0122152,-0.00214314
12.395,-0.0421252,-0.000961619
12.4,-0.0635475,0.000641428
12.405,-0.0799202,4.27E-07
12.41,-0.0935352,-0.00109024
12.415,-0.104397,-0.00144545
12.42,-0.113013,-0.00485367
12.425,-0.120892,-0.00522874
12.43,-0.128556,-0.00635797
12.435,-0.13472,-0.00165584
12.44,-0.138494,-0.00462617
12.445,-0.141301,-0.00803686
12.45,-0.145137,-0.00823318
12.455,-0.14934,-0.00217276
12.46,-0.152217,0.00204458
12.465,-0.153256,0.000452097
12.47,-0.154176,-0.00208029
12.475,-0.160137,-0.00555887
12.48,-0.174964,-0.0068903
12.485,-0.182899,-0.00636527
12.49,-0.144614,-0.00405406
12.495,-0.0108177,-0.0031521
12.5,0.253649,-0.00337169
12.505,0.617734,-0.00449338
12.51,0.976519,0.000118663
12.515,1.2174,0.00932393
12.52,1.27992,0.00629897
12.525,1.17045,-0.0013139
12.53,0.950044,0.00386218
12.535,0.697434,-0.00828143
12.54,0.471676,-0.0324058
12.545,0.298681,-0.0190769
12.55,0.179633,-0.000357265
12.555,0.103935,0.00145049
12.56,0.0569208,0.00753044
12.565,0.0253308,0.0178668
12.57,0.0022624,-0.000106005
12.575,-0.0137148,-0.00925081
12.58,-0.0239031,-0.011464
12.585,-0.0312278,-0.00561961
12.59,-0.0366535,0.00085303
12.595,-0.0388848,0.0025184
12.6,-0.0373097,-0.00437948
12.605,-0.0328041,-0.00408614
12.61,-0.0261114,-0.00330726
12.615,-0.0172651,-0.00731698
12.62,-0.0062284,-0.00621318
12.625,0.00542328,-0.00556344
12.63,0.0169383,-0.00224697
12.635,0.0295095,-0.00958839
12.64,0.0436347,-0.00860733
12.645,0.0583162,-0.00599768
12.65,0.0738466,-0.00491607
12.655,0.0918646,-0.00155685
12.66,0.112042,0.00241936
12.665,0.132259,0.00506906
12.67,0.15202,-0.000650439
12.675,0.172276,0.00282722
12.68,0.193006,-0.00127725
12.685,0.213306,-0.000547369
12.69,0.233104,-0.00183904
12.695,0.252991,-0.00467694
12.7,0.272423,-0.00504091
12.705,0.289198,-0.00604552
12.71,0.302156,-0.0106269
12.715,0.311958,-0.0117375
12.72,0.318083,-0.002743
12.725,0.31804,-0.00241075
12.73,0.310448,-0.00504543
12.735,0.295712,0.000715895
12.74,0.273119,0.000776313
12.745,0.240746,-0.00140708
12.75,0.199278,-0.00789416
12.755,0.152761,-0.0116846
12.76,0.105833,-0.00325585
12.765,0.0614673,0.00326803
12.77,0.0219934,-0.000776196
12.775,-0.0100762,0.00152749
12.78,-0.0346124,0.00274071
12.785,-0.0538418,0.000368114
12.79,-0.070241,-0.00484989
12.795,-0.0842127,-0.00982057
12.8,-0.0949362,-0.00830299
12.805,-0.10313,-0.00538547
12.81,-0.110373,-0.00682514
12.815,-0.116614,-0.00420882
12.82,-0.121663,-0.000977931
12.825,-0.12707,-0.00230103
12.83,-0.133222,-0.00320595
12.835,-0.138329,0.000436607
12.84,-0.141451,0.00574874
12.845,-0.144316,0.0139688
12.85,-0.148093,-0.0192656
12.855,-0.151213,-0.0279674
12.86,-0.15238,0.0184251
12.865,-0.152772,-0.00507332
12.87,-0.153821,0.00017369
12.875,-0.155071,-0.00144587
12.88,-0.155772,-0.00226237
12.885,-0.156256,-0.0101895
12.89,-0.15652,-0.0104105
12.895,-0.155729,-0.00111494
12.9,-0.154551,-0.0016776
12.905,-0.154917,-0.00601798
12.91,-0.157232,-0.0104354
12.915,-0.159533,-0.0072645
12.92,-0.160865,-0.00441532
12.925,-0.162451,0.00171286
12.93,-0.164887,0.000110746
12.935,-0.167064,0.000773269
12.94,-0.168718,0.0021502
12.945,-0.171209,0.00113575
12.95,-0.174959,-5.84E-05
12.955,-0.178473,-0.00425958
12.96,-0.180745,-0.00423329
12.965,-0.182534,-0.0048371
12.97,-0.184161,-0.00459272
12.975,-0.185046,-0.00316753
12.98,-0.185794,-0.00352662
12.985,-0.187666,-0.00622169
12.99,-0.190783,-0.00607074
12.995,-0.19438,-0.00795877
13,-0.198113,-0.00711375
13.005,-0.201661,-0.00159357
13.01,-0.205264,-0.0014314
13.015,-0.208785,0.0034368
13.02,-0.21112,0.00186781
13.025,-0.21271,-0.000741646
13.03,-0.214195,-0.00475843
13.035,-0.215233,-0.0078784
13.04,-0.215916,-0.00565217
13.045,-0.216753,-0.00266536
13.05,-0.218034,0.000522177
13.055,-0.219756,-0.00235411
13.06,-0.22142,-0.000505957
13.065,-0.223285,-0.00609311
13.07,-0.225659,-0.0098019
13.075,-0.22753,-0.00492548
13.08,-0.228691,-0.00394119
13.085,-0.230002,-0.00297072
13.09,-0.231508,0.000396294
13.095,-0.232491,0.00083497
13.1,-0.232829,0.00089035
13.105,-0.233753,-0.00413639
13.11,-0.236086,-0.00583549
13.115,-0.239056,-0.00432544
13.12,-0.241632,-0.00614078
13.125,-0.24396,-0.00262484
13.13,-0.245591,-0.00337023
13.135,-0.245295,-0.00163736
13.14,-0.24322,-0.00138017
13.145,-0.241527,-0.00672418
13.15,-0.241639,-0.0114249
13.155,-0.24223,-0.00482778
13.16,-0.242404,-0.00301265
13.165,-0.242958,-0.000462642
13.17,-0.244102,0.00340637
13.175,-0.244547,0.00293733
13.18,-0.243397,-0.000273957
13.185,-0.241356,-0.00586131
13.19,-0.239162,-0.00752788
13.195,-0.236555,-0.00469211
13.2,-0.23382,-0.00340174
13.205,-0.232684,-0.00115716
13.21,-0.233697,-0.00145871
13.215,-0.234828,-0.0011209
13.22,-0.234605,-0.00426132
13.225,-0.233521,-0.00493463
13.23,-0.232054,-0.00309979
13.235,-0.229933,-0.00441547
13.24,-0.227204,-0.00486678
13.245,-0.224829,-0.00424287
13.25,-0.223001,-0.00457788
13.255,-0.220761,-0.00546856
13.26,-0.218575,-0.00349763
13.265,-0.217821,-0.00327956
13.27,-0.218136,-0.00384585
13.275,-0.217589,-0.000185822
13.28,-0.21572,-0.00117933
13.285,-0.213848,-0.00346892
13.29,-0.212792,-0.00440594
13.295,-0.211077,-0.00692183
13.3,-0.205457,-0.00377007
13.305,-0.194349,-4.95E-05
13.31,-0.17907,-0.000855667
13.315,-0.162461,-0.000468108
13.32,-0.147145,-0.00168074
13.325,-0.132803,-0.00359307
13.33,-0.115453,-0.00323425
13.335,-0.0905074,-0.00678772
13.34,-0.0576246,-0.00217077
13.345,-0.0216703,-0.00317097
13.35,0.0101976,-0.00564381
13.355,0.033646,-0.00251612
13.36,0.0483822,-0.0020079
13.365,0.0532136,-0.00341954
13.37,0.0463105,-0.00361962
13.375,0.0274429,-0.000840215
13.38,-0.00233182,-0.00244724
13.385,-0.0403837,-0.00288965
13.39,-0.0812117,-0.00479362
13.395,-0.117767,-0.00258586
13.4,-0.145754,-0.00298317
13.405,-0.165841,-0.00483241
13.41,-0.179859,-0.00566217
13.415,-0.188632,-0.00559224
13.42,-0.193777,-0.00377137
13.425,-0.197977,-0.00247199
13.43,-0.202353,-0.00210681
13.435,-0.205846,-0.00055313
13.44,-0.2083,-0.00453431
13.445,-0.21126,-0.00293273
13.45,-0.214627,-0.00320794
13.455,-0.216294,-0.0050473
13.46,-0.215349,-0.000438756
13.465,-0.212623,0.000484719
13.47,-0.209057,-0.00131644
13.475,-0.204639,-0.00275555
13.48,-0.203122,-0.00662883
13.485,-0.212838,-0.00713277
13.49,-0.231532,-0.00904041
13.495,-0.228643,-0.00409969
13.5,-0.156874,-0.0029052
13.505,0.0308977,-0.00398559
13.51,0.350595,-0.00678445
13.515,0.739199,-0.00358389
13.52,1.0762,0.00392319
13.525,1.25859,0.00776163
13.53,1.25105,0.00367337
13.535,1.08969,0.000853654
13.54,0.850312,0.00132822
13.545,0.605616,-0.0159384
13.55,0.402258,-0.0312887
13.555,0.256274,-0.0139479
13.56,0.161696,0.00251541
13.565,0.10306,0.00330389
13.57,0.0661777,0.017217
13.575,0.0430603,0.0139626
13.58,0.0288352,-0.0114134
13.585,0.019937,-0.0109634
13.59,0.0147197,-0.00701497
13.595,0.0125539,0.00124906
13.6,0.0125162,0.00527623
13.605,0.0142136,-0.00271963
13.61,0.0179491,-0.0105264
13.615,0.0238346,-0.00244081
13.62,0.0316499,-0.00117568
13.625,0.0406059,-0.00339358
13.63,0.0506145,-0.00498016
13.635,0.062591,-0.00562019
13.64,0.0763462,-0.00479941
13.645,0.0905057,-0.00656612
13.65,0.105123,-0.0087535
13.655,0.12153,-0.0100153
13.66,0.140272,-0.00565851
13.665,0.160532,-0.00198852
13.67,0.181372,-0.00194921
13.675,0.203892,0.00104882
13.68,0.229394,0.00194249
13.685,0.256726,0.00271877
13.69,0.284511,-0.000607939
13.695,0.31294,-0.00128798
13.7,0.34189,-0.00457282
13.705,0.368533,-0.00154621
13.71,0.390825,-0.00395899
13.715,0.409128,-0.00529481
13.72,0.423809,-0.00167379
13.725,0.434384,-0.00644538
13.73,0.440238,-0.00992313
13.735,0.440415,-0.00622625
13.74,0.432449,-0.00639219
13.745,0.413324,-0.00198196
13.75,0.382476,-0.00593662
13.755,0.342564,-0.00123662
13.76,0.297078,0.00206227
13.765,0.248697,0.000346557
13.77,0.19987,-0.000688829
13.775,0.153929,-0.00490255
13.78,0.11326,-0.00487303
13.785,0.0779428,0.000126393
13.79,0.0477181,-0.00215818
13.795,0.0234706,-0.00665555
13.8,0.00546096,-0.00455044
13.805,-0.00874554,-0.00329884
13.81,-0.0210905,-0.00448611
13.815,-0.0310888,-0.00488251
13.82,-0.0382233,-0.00122694
13.825,-0.0433767,0.000515371
13.83,-0.0469914,-0.00273482
13.835,-0.0485305,-0.00308007
13.84,-0.0484622,-0.00169095
13.845,-0.0486747,0.00248648
13.85,-0.049431,0.00576438
13.855,-0.0484746,-0.0328601
13.86,-0.0448792,-0.0235734
13.865,-0.0404169,0.0185523
13.87,-0.0369316,-0.000235401
13.875,-0.0342213,0.00181299
13.88,-0.030875,0.00539467
13.885,-0.0270343,-0.000220649
13.89,-0.0237873,-0.00455776
13.895,-0.0212038,-0.00655763
13.9,-0.0184311,-0.0062011
13.905,-0.0155036,-0.00292665
13.91,-0.0129633,-0.00709306
13.915,-0.0100722,-0.00496494
13.92,-0.00638967,-0.00260428
13.925,-0.00309757,-0.00272159
13.93,-0.000566346,-0.00183538
13.935,0.00257251,-0.0019695
13.94,0.00696203,-0.00392124
13.945,0.0106852,-0.00310778
13.95,0.012337,-0.00129093
13.955,0.013083,-0.00468387
13.96,0.0131392,-0.00575154
13.965,0.0113042,-0.00272117
13.97,0.00794864,-0.00467388
13.975,0.00515249,-0.00359573
13.98,0.00471068,-0.00056728
13.985,0.00612041,-0.00352528
13.99,0.00767427,-0.0047152
13.995,0.00904365,-0.00287512
14,0.010229,-0.0018099
14.005,0.0100522,-0.000860233
14.01,0.00825082,-0.00144579
14.015,0.00688894,-0.00336815
14.02,0.00741969,-0.00552701
14.025,0.00869437,-0.0050232
14.03,0.00920535,-0.00599103
14.035,0.00899587,-0.00330148
14.04,0.00915087,-0.00199903
14.045,0.00984979,-0.00353885
14.05,0.0109719,-0.00447929
14.055,0.0131922,-0.00574302
14.06,0.0154204,0.00154699
14.065,0.0154233,0.000107433
14.07,0.0133583,-0.000354508
14.075,0.0115745,0.00147602
14.08,0.0115145,0.000900363
14.085,0.0127211,-0.00544406
14.09,0.0147677,-0.00987217
14.095,0.0174633,-0.00619208
14.1,0.0197342,-0.00518701
14.105,0.0207199,-0.00654014
14.11,0.0211571,-0.00394496
14.115,0.0227955,-0.00362041
14.12,0.0265151,-0.00226812
14.125,0.0310889,-0.000741454
14.13,0.0347624,-0.0019331
14.135,0.0373999,-0.00474112
14.14,0.0394333,-0.00577547
14.145,0.040943,-0.00361674
14.15,0.0418405,-0.00312105
14.155,0.0422454,-0.0014222
14.16,0.0424539,0.000949442
14.165,0.0424551,-0.000308777
14.17,0.0420398,-0.0023971
14.175,0.0421922,-0.00310514
14.18,0.0434497,-0.00561053
14.185,0.0442881,-0.00666614
14.19,0.0439115,-0.00180893
14.195,0.0429694,-0.0017083
14.2,0.0416456,-0.00241589
14.205,0.0400183,-0.00202067
14.21,0.0390828,-0.00751026
14.215,0.0399355,-0.006489
14.22,0.0416535,-0.00580493
14.225,0.0420636,-0.00144362
14.23,0.0401173,0.00105774
14.235,0.0371684,-2.51E-05
14.24,0.0352481,-0.00313997
14.245,0.0342828,-0.00424651
14.25,0.0330291,-0.00362963
14.255,0.0316487,-0.00483269
14.26,0.030771,-0.00558508
14.265,0.0298583,-0.00369157
14.27,0.0287025,-0.00351323
14.275,0.0297671,-0.00207482
14.28,0.0367513,-0.00166116
14.285,0.049419,-0.00260451
14.29,0.0642332,-0.000678761
14.295,0.0782061,-0.00485097
14.3,0.0916797,-0.00529601
14.305,0.107734,-0.00198889
14.31,0.129928,-0.00283816
14.315,0.159903,-0.00262953
14.32,0.194107,-0.00340162
14.325,0.224007,-0.00384224
14.33,0.243808,-0.00529421
14.335,0.253462,-0.00568674
14.34,0.254178,-0.00135539
14.345,0.244917,-0.00182438
14.35,0.223085,-0.00371845
14.355,0.188772,-0.0020523
14.36,0.146682,-0.00430097
14.365,0.102478,-0.00791887
14.37,0.0611903,-0.0077123
14.375,0.0268477,-0.000258697
14.38,0.00116219,0.00393795
14.385,-0.0174609,0.000270799
14.39,-0.0315375,-0.00263427
14.395,-0.0417545,-0.00654029
14.4,-0.0493258,-0.00208447
14.405,-0.056718,-0.00165287
14.41,-0.0651518,-0.00104253
14.415,-0.0738222,-0.0076103
14.42,-0.0815186,0.00108718
14.425,-0.0876814,0.00250741
14.43,-0.0925889,-0.00319911
14.435,-0.0953629,-0.00705382
14.44,-0.094892,-0.00370635
14.445,-0.0926712,-0.00461989
14.45,-0.0920295,-0.00672499
14.455,-0.0977323,-0.00415473
14.46,-0.117472,-0.0111995
14.465,-0.151523,-0.0137275
14.47,-0.171531,-0.00314729
14.475,-0.12521,-0.0010431
14.48,0.0430369,-0.00492738
14.485,0.35972,-0.00391644
14.49,0.768026,0.0011275
14.495,1.13995,0.00570067
14.5,1.35647,0.0126695
14.505,1.36969,0.00709477
14.51,1.21211,-0.00158826
14.515,0.964599,-0.00222716
14.52,0.706458,-0.00322635
14.525,0.487429,-0.0243668
14.53,0.325558,-0.0238247
14.535,0.217774,-0.0155362
14.54,0.150614,0.00633579
14.545,0.108512,0.0238465
14.55,0.0797097,0.0188582
14.555,0.0577905,-0.0100122
14.56,0.0408507,-0.0294285
14.565,0.0284325,-0.0177487
14.57,0.0197455,0.00496356
14.575,0.0142143,0.00981541
14.58,0.0120644,-0.00447273
14.585,0.0126922,-0.0053274
14.59,0.0149262,-0.00319153
14.595,0.018625,-0.00105085
14.6,0.0244809,0.000963353
14.605,0.0317367,-0.00338659
14.61,0.0394298,-0.00160325
14.615,0.0480568,-0.00404357
14.62,0.0579745,-0.00319354
14.625,0.0679449,-0.00472809
14.63,0.0777908,-0.00675941
14.635,0.0889666,-0.00749047
14.64,0.102331,-0.00705285
14.645,0.117422,-0.00670357
14.65,0.134314,-0.00524819
14.655,0.153742,-0.00454982
14.66,0.174541,-0.00376511
14.665,0.193972,-0.000553488
14.67,0.210812,0.00458956
14.675,0.226134,0.0056593
14.68,0.240905,0.00384329
14.685,0.253841,-0.00163517
14.69,0.26376,-0.00722453
14.695,0.27146,-0.00619201
14.7,0.277146,-0.00897876
14.705,0.279016,-0.00952218
14.71,0.275611,-0.00751602
14.715,0.266447,-0.00458525
14.72,0.250132,0.00123685
14.725,0.224199,0.00091182
14.73,0.188363,-0.00197
14.735,0.145901,-0.00661873
14.74,0.101272,-0.00483812
14.745,0.0573454,-9.56E-05
14.75,0.0163844,0.000307498
14.755,-0.0190517,-0.00699252
14.76,-0.0477389,-0.00603092
14.765,-0.0707077,0.0007277
14.77,-0.0900727,-0.00104503
14.775,-0.107118,-0.00396573
14.78,-0.121949,-0.00418826
14.785,-0.135206,-0.00212301
14.79,-0.146736,-0.00289241
14.795,-0.154846,-0.00500384
14.8,-0.159194,-0.00714444
14.805,-0.161678,-0.00190328
14.81,-0.163065,0.000296619
14.815,-0.162766,0.00674406
14.82,-0.161565,0.00825543
14.825,-0.161045,-0.0260042
14.83,-0.161732,-0.0260419
14.835,-0.162353,0.014716
14.84,-0.161741,-0.00085572
14.845,-0.160285,-0.000189827
14.85,-0.158556,-0.000332446
14.855,-0.156628,-0.000207601
14.86,-0.154966,-0.000278315
14.865,-0.154694,-0.00582774
14.87,-0.155935,-0.00249367
14.875,-0.156612,-0.00395038
14.88,-0.155051,-0.0117248
14.885,-0.152338,-0.00428374
14.89,-0.150255,-0.0027975
14.895,-0.149485,-0.00491185
14.9,-0.149975,-0.00150954
14.905,-0.151444,-0.00097418
14.91,-0.153158,-0.00512265
14.915,-0.153779,-0.000897295
14.92,-0.153077,-0.00352861
14.925,-0.153019,-0.000380342
14.93,-0.154777,0.00150922
14.935,-0.15684,-0.00199319
14.94,-0.158244,-0.00419537
14.945,-0.159966,-0.00690955
14.95,-0.162655,-0.00769266
14.955,-0.165009,-0.00746443
14.96,-0.166358,-0.00339492
14.965,-0.168103,-0.00100549
14.97,-0.170906,-0.00587456
14.975,-0.17336,-0.00473947
14.98,-0.174232,-0.00698452
14.985,-0.174531,-0.00273072
14.99,-0.17548,0.00194058
14.995,-0.176869,0.00323325
15,-0.17806,-0.00136315
15.005,-0.179715,-0.00341332
15.01,-0.182101,-0.00138424
15.015,-0.184141,0.00145294
15.02,-0.184823,-0.00284273
15.025,-0.184606,-0.0052739
15.03,-0.184349,-0.00545524
15.035,-0.18361,-0.00582639
15.04,-0.181768,-0.00540949
15.045,-0.180321,-0.00390958
15.05,-0.180408,-0.00273562
15.055,-0.180438,-0.00105153
15.06,-0.179333,-0.00352583
15.065,-0.178169,-0.00460304
15.07,-0.177769,-0.00303246
15.075,-0.17743,-0.00356416
15.08,-0.177184,-0.00414528
15.085,-0.177991,-0.00745765
15.09,-0.17923,-0.00834216
15.095,-0.178526,-0.000910128
15.1,-0.175017,0.00279902
15.105,-0.170669,0.00184395
15.11,-0.167424,0.000833284
15.115,-0.164489,-0.00116711
15.12,-0.161301,-0.00525453
15.125,-0.158914,-0.0086874
15.13,-0.157645,-0.00913838
15.135,-0.155801,-0.00454956
15.14,-0.15198,-0.00380974
15.145,-0.14702,-0.00132212
15.15,-0.142441,-0.000661201
15.155,-0.138087,-0.00417358
15.16,-0.133766,-0.00662591
15.165,-0.130775,-0.00610956
15.17,-0.12947,-0.000156874
15.175,-0.128779,-0.0026209
15.18,-0.127707,-0.000345973
15.185,-0.126512,0.000441678
15.19,-0.125641,-0.000469192
15.195,-0.123533,0.000107103
15.2,-0.119247,-0.00567465
15.205,-0.11356,-0.00700718
15.21,-0.105463,-0.00554513
15.215,-0.0924149,0.000198796
15.22,-0.0743079,-0.000355277
15.225,-0.055318,-0.00385337
15.23,-0.0380031,-0.00400036
15.235,-0.0194699,-0.00301323
15.24,0.00426563,-0.0044619
15.245,0.0354669,-0.00601694
15.25,0.074042,-0.00597195
15.255,0.116385,-0.00343693
15.26,0.155005,-0.00541822
15.265,0.183022,-0.00539096
15.27,0.19949,-0.00468515
15.275,0.206897,-0.000677973
15.28,0.204976,0.00103525
15.285,0.191218,-0.00044712
15.29,0.164359,-0.00363618
15.295,0.127584,-0.00461805
15.3,0.0870823,-0.00240609
15.305,0.0481998,-0.00107985
15.31,0.0144136,-0.000621941
15.315,-0.0115743,-0.0014585
15.32,-0.028887,-0.00380113
15.325,-0.0395791,-0.00611418
15.33,-0.0466669,-0.00315239
15.335,-0.0521122,-0.00335678
15.34,-0.0572166,-0.00537443
15.345,-0.0630238,-0.00570673
15.35,-0.0691088,-0.00510651
15.355,-0.0736294,-0.0018152
15.36,-0.0755681,-0.00124031
15.365,-0.0760489,-0.0070681
15.37,-0.0760726,-0.00706391
15.375,-0.0750939,-0.000574288
15.38,-0.0728889,0.0046223
15.385,-0.0710225,-0.000126383
15.39,-0.0742779,-0.00256118
15.395,-0.0888294,-0.00418028
15.4,-0.110928,-0.00622953
15.405,-0.112019,-0.00648354
15.41,-0.0456723,-0.00608231
15.415,0.137974,-0.0066412
15.42,0.458139,-0.00757969
15.425,0.850708,-0.00456919
15.43,1.19228,0.00199511
15.435,1.3804,0.0134636
15.44,1.3786,0.00884522
15.445,1.21885,-0.00336487
15.45,0.975691,0.000575864
15.455,0.725696,-0.0118457
15.46,0.518494,-0.0411123
15.465,0.370059,-0.0206603
15.47,0.273797,6.07E-05
15.475,0.215275,0.00485012
15.48,0.180792,0.0140807
15.485,0.159369,0.0250918
15.49,0.144789,0.0031134
15.495,0.135773,-0.0173482
15.5,0.132256,-0.0120755
15.505,0.13313,-0.00378231
15.51,0.137644,0.00370655
15.515,0.145494,-0.000832856
15.52,0.155809,-0.00641683
15.525,0.167379,-0.00663537
15.53,0.179563,-0.0048261
15.535,0.192726,-0.0033442
15.54,0.207038,0.000311106
15.545,0.22204,-0.00276573
15.55,0.237215,-0.00314287
15.555,0.253313,-0.00604717
15.56,0.271703,-0.00707118
15.565,0.290757,-0.00912444
15.57,0.308005,-0.00743555
15.575,0.324184,-0.00319453
15.58,0.341002,-0.00207441
15.585,0.358652,0.000160356
15.59,0.376533,-0.00361875
15.595,0.394853,-0.00178245
15.6,0.413963,0.000739733
15.605,0.433093,0.0010725
15.61,0.451452,-0.000334708
15.615,0.469439,-0.00406022
15.62,0.486655,-0.00756668
15.625,0.500769,-0.00244481
15.63,0.510497,-0.00382424
15.635,0.517445,-0.00575189
15.64,0.522536,-0.00562842
15.645,0.52382,-0.00678328
15.65,0.518649,1.82E-05
15.655,0.505868,-0.0018139
15.66,0.485041,-0.00229342
15.665,0.456016,-0.00131887
15.67,0.420423,-0.00337378
15.675,0.381257,-0.000190985
15.68,0.341762,0.000439215
15.685,0.304773,-0.00202935
15.69,0.272432,-0.00315586
15.695,0.246893,-0.00518471
15.7,0.228745,-0.00520933
15.705,0.215696,-0.00550995
15.71,0.205388,-0.00596155
15.715,0.19714,-0.00401184
15.72,0.190606,-0.00168631
15.725,0.184387,-0.00343957
15.73,0.17799,-0.00794561
15.735,0.173138,-0.00769901
15.74,0.170908,-0.00388436
15.745,0.170601,-0.00125241
15.75,0.170183,0.000544424
15.755,0.168469,0.008372
15.76,0.165381,0.00575538
15.765,0.161064,-0.0324886
15.77,0.156368,-0.00509619
15.775,0.153125,0.0104026
15.78,0.15224,0.00233045
15.785,0.152334,-0.00198451
15.79,0.152869,0.00114605
15.795,0.154493,-0.00637881
15.8,0.15661,-0.00334269
15.805,0.157757,-0.00342361
15.81,0.157633,-0.00494359
15.815,0.157175,-0.00403497
15.82,0.156803,-0.00285274
15.825,0.156848,-0.00846108
15.83,0.157673,-0.00597003
15.835,0.160242,-0.00467187
15.84,0.164401,-0.00306599
15.845,0.168752,-0.0011269
15.85,0.172721,-0.00184306
15.855,0.176684,-0.00147906
15.86,0.180545,-0.00220662
15.865,0.183222,-0.00393169
15.87,0.184363,-0.00626618
15.875,0.185184,-0.00475565
15.88,0.186457,-0.000175202
15.885,0.187482,-0.00125177
15.89,0.187824,-0.00150048
15.895,0.187572,-0.00327894
15.9,0.186887,-0.00547301
15.905,0.185213,-0.00583731
15.91,0.181621,-0.00222324
15.915,0.177081,-0.00157171
15.92,0.173135,-0.00164459
15.925,0.169376,-0.0020003
15.93,0.164784,-0.00337879
15.935,0.159735,-0.00588237
15.94,0.154935,-0.00467628
15.945,0.150249,-0.00435343
15.95,0.145754,-0.00194259
15.955,0.143032,-0.00077548
15.96,0.142656,-0.00239793
15.965,0.14297,-0.00740925
15.97,0.142606,-0.00304269
15.975,0.142088,-0.0039976
15.98,0.142202,-0.000125773
15.985,0.142371,-0.000585027
15.99,0.142708,-0.00358669
15.995,0.144777,-0.00542144
16,0.148168,-0.00268627
16.005,0.150302,-0.0013496
16.01,0.149653,-0.0033513
16.015,0.147225,-0.00612305
16.02,0.144745,-0.00258963
16.025,0.142704,-0.00264762
16.03,0.141124,-0.00409056
16.035,0.140371,-0.000794494
16.04,0.140052,-0.00193198
16.045,0.138813,-0.00473729
16.05,0.136482,-0.00566669
16.055,0.134273,-0.0045823
16.06,0.132245,-0.00199095
16.065,0.129428,-0.0024612
16.07,0.125339,-0.0020181
16.075,0.120921,-0.000504442
16.08,0.117154,-0.00459977
16.085,0.113809,-0.00088078
16.09,0.110836,-0.00593525
16.095,0.108847,-0.00666099
16.1,0.107281,-0.00937002
16.105,0.104237,-0.0029003
16.11,0.0985804,-0.00347409
16.115,0.091796,-0.000476199
16.12,0.0861332,0.00105051
16.125,0.0818439,-0.000640917
16.13,0.0785004,-0.00371622
16.135,0.0764205,-0.00732766
16.14,0.0749994,-0.00571346
16.145,0.0726478,-0.00349127
16.15,0.0688925,0.00116542
16.155,0.0653789,0.00239187
16.16,0.0648003,-0.000371934
16.165,0.0691366,-0.00333966
16.17,0.0786253,-0.00747944
16.175,0.0910613,-0.00570369
16.18,0.102497,-0.0043655
16.185,0.111523,-0.00202645
16.19,0.12153,-0.00399232
16.195,0.137743,-0.00249458
16.2,0.163581,-0.00275631
16.205,0.196213,-0.0062301
16.21,0.227141,-0.0123365
16.215,0.248851,-0.00448526
16.22,0.258895,0.000768192
16.225,0.257279,-0.00101431
16.23,0.24476,0.00342538
16.235,0.221482,0.00510332
16.24,0.186614,-0.00137587
16.245,0.141838,-0.00396747
16.25,0.0923866,-0.00498476
16.255,0.0454939,-0.0122244
16.26,0.00681783,-0.00923305
16.265,-0.0228503,-0.00114826
16.27,-0.0456294,-3.46E-06
16.275,-0.0632864,-0.00206813
16.28,-0.0769085,-0.00696536
16.285,-0.0883033,-0.00540828
16.29,-0.0985137,-0.000585315
16.295,-0.107015,0.00146514
16.3,-0.113797,0.000134649
16.305,-0.120016,-0.00260613
16.31,-0.127254,-0.00538221
16.315,-0.134959,-0.00486154
16.32,-0.140952,-0.0056958
16.325,-0.145002,-0.00623619
16.33,-0.147307,-0.0036973
16.335,-0.146523,-0.00169719
16.34,-0.146168,-0.00199012
16.345,-0.156064,-0.00399397
16.35,-0.176186,-0.00230453
16.355,-0.178231,-0.00769178
16.36,-0.115406,-0.00688341
16.365,0.0600631,-0.00439382
16.37,0.363655,-0.00285678
16.375,0.732918,-0.00253065
16.38,1.05256,0.00096239
16.385,1.22598,0.0131458
16.39,1.21827,0.00851495
16.395,1.06015,-0.00316237
16.4,0.822649,-0.00406802
16.405,0.577323,-0.011891
16.41,0.370522,-0.0274763
16.415,0.219549,-0.0165301
16.42,0.120868,0.00567548
16.425,0.0602947,0.00540117
16.43,0.0227056,0.00810029
16.435,-0.00182182,0.0110776
16.44,-0.0187651,-0.0107199
16.445,-0.0320305,-0.01261
16.45,-0.0431384,-0.00974372
16.455,-0.0509846,-0.00265324
16.46,-0.053457,0.00666615
16.465,-0.0511918,0.00170168
16.47,-0.0461746,-0.00806139
16.475,-0.0388819,-0.00832369
16.48,-0.0296017,-0.00469608
16.485,-0.0201302,-0.00299607
16.49,-0.011563,-0.00132936
16.495,-0.00237441,-0.0064517
16.5,0.00864731,-0.000819677
16.505,0.0205381,-0.00109509
16.51,0.032213,-0.0043249
16.515,0.0450319,-0.0049375
16.52,0.060378,-0.00646028
16.525,0.0774256,-0.00580706
16.53,0.095358,-0.00356648
16.535,0.114899,-0.00196397
16.54,0.136444,-0.00047319
16.545,0.157849,-0.00144117
16.55,0.177562,-0.0059602
16.555,0.196829,-0.003015
16.56,0.216663,-0.000280544
16.565,0.235475,-0.00311733
16.57,0.251256,-0.00397817
16.575,0.263775,-0.00665239
16.58,0.273641,-0.00175582
16.585,0.280413,-0.00258644
16.59,0.282744,-0.00559219
16.595,0.27979,-0.000931188
16.6,0.270127,-0.00130398
16.605,0.251645,-0.0032298
16.61,0.223777,-0.00213058
16.615,0.188402,-0.00483034
16.62,0.148064,-0.0058555
16.625,0.104453,-0.00562438
16.63,0.0596976,-3.97E-05
16.635,0.0170797,0.00181383
16.64,-0.020622,-0.00211021
16.645,-0.0531504,-0.00223023
16.65,-0.0811676,-0.00111585
16.655,-0.103817,-0.0041965
16.66,-0.121043,-0.00634494
16.665,-0.13453,-0.00588266
16.67,-0.145055,-0.00577067
16.675,-0.152533,-0.00320811
16.68,-0.157979,-0.00324277
16.685,-0.163386,-0.00251363
16.69,-0.168735,-0.0065211
16.695,-0.172036,-0.00158046
16.7,-0.172502,-0.00200858
16.705,-0.171595,0.00223806
16.71,-0.171929,-0.00564742
16.715,-0.174136,-0.0254715
16.72,-0.176617,0.00699087
16.725,-0.178916,0.00796578
16.73,-0.181405,0.00403944
16.735,-0.183102,0.00202732
16.74,-0.182943,-0.00210088
16.745,-0.181917,-0.0109779
16.75,-0.180874,-0.0103809
16.755,-0.179093,-0.00726984
16.76,-0.176496,-0.00388707
16.765,-0.174163,-0.000838246
16.77,-0.172791,-0.00179024
16.775,-0.172169,-0.00226957
16.78,-0.172082,-0.00239618
16.785,-0.172922,-0.00296462
16.79,-0.174649,-0.00327019
16.795,-0.176008,-0.0042361
16.8,-0.176277,-0.000694799
16.805,-0.176667,-0.00283811
16.81,-0.178417,-0.00275238
16.815,-0.180614,-0.00393629
16.82,-0.182219,-0.00494386
16.825,-0.183732,-0.00401545
16.83,-0.185905,-0.00455952
16.835,-0.188453,-0.00396447
16.84,-0.190463,-0.000237943
16.845,-0.192003,-0.00167085
16.85,-0.193403,-0.00405289
16.855,-0.193761,-0.00472768
16.86,-0.192831,-0.00590418
16.865,-0.192067,-0.00480632
16.87,-0.192761,-0.00482097
16.875,-0.194277,-0.00234262
16.88,-0.19497,-0.00292631
16.885,-0.194576,-0.00285878
16.89,-0.194109,-0.00115328
16.895,-0.194187,-0.00100171
16.9,-0.195001,0.000477073
16.905,-0.196834,-0.00270071
16.91,-0.199367,-0.00237221
16.915,-0.200828,-0.00522128
16.92,-0.199916,-0.00544334
16.925,-0.19797,-0.0043599
16.93,-0.196968,-0.00318269
16.935,-0.196934,-0.00172515
16.94,-0.196686,-0.00106198
16.945,-0.19585,-0.00142955
16.95,-0.194744,-0.00396201
16.955,-0.192932,-0.00685426
16.96,-0.189739,-0.00555324
16.965,-0.185813,-0.00255833
16.97,-0.182413,-0.00185237
16.975,-0.179371,-0.00293028
16.98,-0.176023,-0.00499004
16.985,-0.172594,-0.00329474
16.99,-0.169961,-0.00473611
16.995,-0.167599,-0.00344364
17,-0.164112,-0.0039373
17.005,-0.159472,-0.000778676
17.01,-0.154368,1.54E-05
17.015,-0.148764,-0.00218422
17.02,-0.142902,-0.00288521
17.025,-0.138627,-0.00603283
17.03,-0.136734,-0.00496703
17.035,-0.135185,-0.00376749
17.04,-0.131991,-0.00294755
17.045,-0.127552,-0.0053993
17.05,-0.123148,-0.00506153
17.055,-0.119127,-0.00332668
17.06,-0.115474,-0.00208148
17.065,-0.11261,-0.000459725
17.07,-0.11039,0.000149655
17.075,-0.107139,-0.00302215
17.08,-0.101829,-0.00431417
17.085,-0.0960539,-0.00195244
17.09,-0.0908687,-0.00144752
17.095,-0.0849919,-0.0021345
17.1,-0.076179,-0.00471503
17.105,-0.0631433,-0.00168697
17.11,-0.0464628,-0.00203364
17.115,-0.0281102,-0.00366998
17.12,-0.00984243,-0.00753752
17.125,0.00872944,-0.00521852
17.13,0.0301765,-0.00684965
17.135,0.0582555,-0.00890864
17.14,0.094385,-0.00178274
17.145,0.134953,-0.00369205
17.15,0.171875,-0.00107854
17.155,0.198807,0.00180717
17.16,0.215428,-0.00242483
17.165,0.222066,-0.000749467
17.17,0.217779,-1.89E-05
17.175,0.201001,-0.000506792
17.18,0.171221,-0.00495799
17.185,0.130834,-0.00555476
17.19,0.085938,-0.0065297
17.195,0.0447212,-0.00588026
17.2,0.0126884,-0.00632325
17.205,-0.00955505,-0.000127869
17.21,-0.0248764,0.00236351
17.215,-0.0360667,-0.000264006
17.22,-0.0449911,-0.00513721
17.225,-0.0535477,-0.00718136
17.23,-0.0625289,-0.00459693
17.235,-0.0703503,-0.00229589
17.24,-0.0752102,-0.00355063
17.245,-0.0770392,-0.00274062
17.25,-0.0769911,-0.00099147
17.255,-0.0754966,0.00195622
17.26,-0.0727482,-0.00344773
17.265,-0.0705189,-0.00398385
17.27,-0.0694618,-0.00539825
17.275,-0.0682737,-0.00947825
17.28,-0.0695547,-0.00733886
17.285,-0.0809025,-0.00354066
17.29,-0.0955147,-0.00167614
17.295,-0.0772279,-0.00612024
17.3,0.0243686,-0.00949433
17.305,0.253884,-0.00978869
17.31,0.60479,-0.00408384
17.315,0.987353,0.00296995
17.32,1.27878,0.00753639
17.325,1.3966,0.0189395
17.33,1.33107,0.0092294
17.335,1.13615,-0.00178403
17.34,0.890972,0.000223794
17.345,0.660722,-0.0119441
17.35,0.479734,-0.0371974
17.355,0.354896,-0.0268577
17.36,0.276255,0.00065836
17.365,0.22747,0.00838054
17.37,0.195182,0.0152792
17.375,0.173184,0.0123136
17.38,0.158737,-0.0120878
17.385,0.148952,-0.0170949
17.39,0.14187,-0.0171404
17.395,0.137582,-0.00444581
17.4,0.13631,0.012287
17.405,0.137194,0.0132128
17.41,0.139847,-0.00283819
17.415,0.145313,-0.0108561
17.42,0.154157,-0.00349775
17.425,0.164975,-0.00419715
17.43,0.176123,-0.00226295
17.435,0.187287,-0.00270083
17.44,0.198924,-0.00161388
17.445,0.210713,-0.00283455
17.45,0.222375,-0.00681386
17.455,0.235666,-0.00792196
17.46,0.252405,-0.00793333
17.465,0.271428,-0.00571209
17.47,0.291513,-0.00345817
17.475,0.312853,-7.55E-05
17.48,0.335874,0.00197381
17.485,0.35995,0.0024958
17.49,0.384175,0.000150207
17.495,0.40839,-0.00756489
17.5,0.432146,-0.00940327
17.505,0.454555,-0.00919401
17.51,0.475209,-0.00481759
17.515,0.493355,-0.000775392
17.52,0.507574,-0.00100032
17.525,0.516336,-0.00109795
17.53,0.518587,-0.00409184
17.535,0.51367,-0.00253365
17.54,0.500878,-0.00155865
17.545,0.478966,-0.00259309
17.55,0.447763,-0.000156886
17.555,0.409546,0.00119868
17.56,0.367488,-0.00198108
17.565,0.323666,-0.00519114
17.57,0.279695,-0.00683023
17.575,0.237949,-0.00563251
17.58,0.201072,-0.00450604
17.585,0.169935,-0.0029608
17.59,0.144124,-0.00147712
17.595,0.123487,-0.00486049
17.6,0.108226,-0.00488719
17.605,0.0973376,-0.00359653
17.61,0.0892681,-0.00595655
17.615,0.0833826,-0.0031836
17.62,0.079402,-0.00465957
17.625,0.0759023,-0.00172805
17.63,0.0718688,0.000738531
17.635,0.0687547,0.000967669
17.64,0.0680177,0.00349787
17.645,0.0689814,0.00407907
17.65,0.0700276,-0.0247181
17.655,0.0716369,-0.0201596
17.66,0.0746069,0.0122126
17.665,0.0779197,0.0014783
17.67,0.0804952,-0.00302529
17.675,0.0834035,-0.000765065
17.68,0.0878537,0.00200643
17.685,0.0928302,-0.00255666
17.69,0.0969228,-0.00697861
17.695,0.10073,-0.00264073
17.7,0.104743,-0.000368587
17.705,0.107977,-0.00388581
17.71,0.10977,-0.0082142
17.715,0.111455,-0.00948232
17.72,0.114329,-0.00699966
17.725,0.117481,-0.00218924
17.73,0.119716,-0.000600334
17.735,0.120721,-0.000111987
17.74,0.121319,-0.0012635
17.745,0.12154,-0.00215091
17.75,0.121062,-0.00218798
17.755,0.12089,-0.00311171
17.76,0.121923,-0.0052246
17.765,0.123594,-0.00591943
17.77,0.125339,-0.00374604
17.775,0.127448,-0.00342334
17.78,0.130406,-0.00319546
17.785,0.133353,-0.000369489
17.79,0.135094,-0.00206012
17.795,0.135955,-0.00628137
17.8,0.1364,-0.00455152
17.805,0.136162,-0.00401489
17.81,0.135276,-0.00185996
17.815,0.13482,-0.0021129
17.82,0.134629,-0.00221394
17.825,0.133125,-0.00128823
17.83,0.129988,-0.000289987
17.835,0.127044,-0.00351698
17.84,0.125713,-0.00655152
17.845,0.124963,-0.00549436
17.85,0.123341,-0.00334691
17.855,0.121636,-0.00242806
17.86,0.121436,0.00207731
17.865,0.12263,-0.00168293
17.87,0.124088,-0.00602671
17.875,0.126429,-0.00749632
17.88,0.130251,-0.00442807
17.885,0.134069,-0.00388813
17.89,0.136395,-0.00184857
17.895,0.137527,-0.000332276
17.9,0.137963,0.000164666
17.905,0.137601,-0.0026381
17.91,0.136448,-0.00633279
17.915,0.136159,-0.00372386
17.92,0.138485,-0.000892775
17.925,0.142435,-0.00177169
17.93,0.146064,-0.00246436
17.935,0.148788,-0.00356592
17.94,0.15022,-0.00618892
17.945,0.149154,-0.00733025
17.95,0.145417,-0.00277252
17.955,0.140889,-0.003347
17.96,0.137222,-0.00169799
17.965,0.134666,-0.000743687
17.97,0.13273,-0.00252749
17.975,0.131833,-0.00851046
17.98,0.132482,-0.0110191
17.985,0.134017,-0.00674581
17.99,0.135408,0.00244193
17.995,0.136295,0.00396901
18,0.137358,0.00195771
18.005,0.139408,0.000658805
18.01,0.143157,-0.00346515
18.015,0.15069,-0.00589932
18.02,0.163048,-0.00735118
18.025,0.17694,-0.0055708
18.03,0.189258,-0.00771882
18.035,0.201741,-0.00539769
18.04,0.218129,0.000210084
18.045,0.240872,-0.000909199
18.05,0.26999,-0.00113184
18.055,0.302786,-0.0053071
18.06,0.333435,-0.00353985
18.065,0.355601,-0.00206462
18.07,0.36648,-0.00705404
18.075,0.366694,-0.00471082
18.08,0.357359,-0.00278197
18.085,0.337319,-0.000470052
18.09,0.304909,0.000639801
18.095,0.262981,0.0015371
18.1,0.218104,-0.00161721
18.105,0.17616,-0.00703702
18.11,0.140787,-0.00604694
18.115,0.113699,-0.000707595
18.12,0.0945086,-0.0038979
18.125,0.0802935,-0.00152398
18.13,0.0679601,-0.000835012
18.135,0.0567101,-0.0047178
18.14,0.0465791,-0.00735021
18.145,0.0369221,-0.00715958
18.15,0.0277149,-0.00827985
18.155,0.0201178,-0.00452217
18.16,0.0144808,0.000914375
18.165,0.0100555,0.00333993
18.17,0.00608851,-0.000853846
18.175,0.00343778,-0.00394121
18.18,0.00316216,-0.00690145
18.185,0.00191456,-0.00572356
18.19,-0.00971014,-0.00488301
18.195,-0.038813,-0.00292858
18.2,-0.0725524,-0.000322922
18.205,-0.0711931,-0.000826875
18.21,0.0189272,-0.00290856
18.215,0.249352,-0.00591004
18.22,0.616327,-0.00760696
18.225,1.02107,-0.0108342
18.23,1.32686,-0.00332638
18.235,1.44596,0.00966945
18.24,1.37218,0.00780092
18.245,1.16448,0.00181155
18.25,0.904561,0.00627954
18.255,0.660103,0.00164335
18.26,0.467922,-0.0264767
18.265,0.333413,-0.0289998
18.27,0.244306,-0.0175548
18.275,0.186208,0.00340998
18.28,0.14812,0.0240853
18.285,0.121707,0.0232057
18.29,0.101553,-0.00727923
18.295,0.0863021,-0.0248434
18.3,0.0763293,-0.0113111
18.305,0.0697087,0.00811114
18.31,0.0649282,0.00216081
18.315,0.0628287,-0.0067277
18.32,0.0639087,-0.00217624
18.325,0.0665021,-6.02E-05
18.33,0.0687038,-0.000637279
18.335,0.0706534,-0.00349522
18.34,0.0740546,-0.0073173
18.345,0.0791154,-0.00668395
18.35,0.084962,-0.00662327
18.355,0.0917517,-0.00587304
18.36,0.100238,-0.00539832
18.365,0.109711,-0.00730718
18.37,0.119428,-0.00887083
18.375,0.130271,-0.00638999
18.38,0.142926,-0.00456801
18.385,0.156734,-0.000260471
18.39,0.171864,0.00379544
18.395,0.189438,0.00132301
18.4,0.208591,0.00170092
18.405,0.226102,0.00137455
18.41,0.239863,-0.00181966
18.415,0.250573,-0.00577185
18.42,0.259763,-0.005227
18.425,0.266939,-0.00375726
18.43,0.270131,-0.00415526
18.435,0.268541,-0.0018781
18.44,0.261848,-0.0033304
18.445,0.248668,-0.00761459
18.45,0.227918,-0.00815328
18.455,0.200459,-0.00257213
18.46,0.167763,-0.000454108
18.465,0.129816,-0.000687581
18.47,0.0863143,0.00149304
18.475,0.0401375,-0.00139047
18.48,-0.00378582,-0.00516947
18.485,-0.0436136,-0.00652992
18.49,-0.0794869,-0.00609549
18.495,-0.109627,-0.00548421
18.5,-0.132725,-0.00752223
18.505,-0.150747,-0.00118999
18.51,-0.16658,0.0022273
18.515,-0.180621,-0.0020123
18.52,-0.192666,-0.00633734
18.525,-0.203031,-0.00500644
18.53,-0.212653,-0.00339803
18.535,-0.221581,-0.00480295
18.54,-0.228893,-0.00136896
18.545,-0.234952,0.00706466
18.55,-0.241086,0.00300337
18.555,-0.246998,-0.0332488
18.56,-0.252022,-0.00216839
18.565,-0.257121,0.0109482
18.57,-0.263155,0.00305854
18.575,-0.268731,0.00174292
18.58,-0.2718,0.00191856
18.585,-0.272784,-0.00865234
18.59,-0.273737,-0.00639846
18.595,-0.275129,-0.00161502
18.6,-0.275677,-0.00813584
18.605,-0.275318,-0.00384369
18.61,-0.275686,0.000105289
18.615,-0.277029,-0.004894
18.62,-0.278695,-0.00634067
18.625,-0.281446,-0.00836795
18.63,-0.285708,-0.009129
18.635,-0.289136,-0.00540071
18.64,-0.289706,0.000935198
18.645,-0.289404,0.003411
18.65,-0.290838,0.00220836
18.655,-0.293451,0.00050403
18.66,-0.295674,0.000132581
18.665,-0.297344,-0.00333183
18.67,-0.299119,-0.00640927
18.675,-0.301033,-0.00652271
18.68,-0.303637,-0.00746287
18.685,-0.307589,-0.00556305
18.69,-0.312184,-0.00152771
18.695,-0.315741,-0.00281399
18.7,-0.317514,-0.000667004
18.705,-0.318515,-0.00164508
18.71,-0.319739,-0.00492512
18.715,-0.321244,-0.00859643
18.72,-0.322605,-0.00635921
18.725,-0.323583,-0.00055175
18.73,-0.324314,-0.00114175
18.735,-0.324549,-0.00174366
18.74,-0.323927,0.00062229
18.745,-0.323338,0.00147715
18.75,-0.324223,-0.000984484
18.755,-0.325946,-0.00781611
18.76,-0.32681,-0.0115734
18.765,-0.32673,-0.00654076
18.77,-0.326168,-0.000676754
18.775,-0.324473,-0.00167051
18.78,-0.321386,-0.00269488
18.785,-0.319055,0.00159922
18.79,-0.319263,0.00177494
18.795,-0.321145,-9.79E-05
18.8,-0.322495,-0.00366016
18.805,-0.323265,-0.00842461
18.81,-0.324472,-0.00620873
18.815,-0.324983,-0.00556005
18.82,-0.323148,-0.00156792
18.825,-0.320393,-0.000145079
18.83,-0.319749,-0.00104469
18.835,-0.321487,-0.00285305
18.84,-0.32362,-0.00321322
18.845,-0.324803,-0.00836874
18.85,-0.325197,-0.0126338
18.855,-0.324237,-0.00757255
18.86,-0.32059,0.00036794
18.865,-0.313413,0.00274677
18.87,-0.302162,0.000538229
18.875,-0.286564,0.00206494
18.88,-0.268485,0.00233097
18.885,-0.252372,-0.00300713
18.89,-0.239201,-0.00498881
18.895,-0.224157,-0.00652357
18.9,-0.202107,-0.0104329
18.905,-0.172011,-0.00828334
18.91,-0.137315,-0.0039483
18.915,-0.103983,-0.00145603
18.92,-0.0781093,-0.00157299
18.925,-0.0636082,-0.00293854
18.93,-0.0612629,-0.00256393
18.935,-0.0692044,0.00115927
18.94,-0.0866882,0.000494792
18.945,-0.115667,-0.00187258
18.95,-0.155343,-0.00222191
18.955,-0.199915,-0.00557847
18.96,-0.242085,-0.00751315
18.965,-0.276956,-0.00746707
18.97,-0.303585,-0.00707503
18.975,-0.32256,-0.0023574
18.98,-0.335339,-0.00185188
18.985,-0.344247,-0.00456262
18.99,-0.351434,-0.00402846
18.995,-0.357504,-0.00163954
19,-0.363017,0.00127257
19.005,-0.369091,0.00182614
19.01,-0.375535,-0.00229573
19.015,-0.380051,-0.00149959
19.02,-0.381098,-0.00618951
19.025,-0.379798,-0.00757555
19.03,-0.377683,-0.00728563
19.035,-0.374344,-0.0040742
19.04,-0.369178,-0.00242371
19.045,-0.365737,-0.000189773
19.05,-0.372701,-0.0019385
19.055,-0.393183,-0.00222897
19.06,-0.404982,-0.0020381
19.065,-0.363122,-0.00591657
19.07,-0.214849,-0.00843181
19.075,0.0755477,-0.00551319
19.08,0.469112,-0.00418794
19.085,0.846926,-0.00120736
19.09,1.0868,0.00803587
19.095,1.13182,0.0138361
19.1,1.00254,0.00188369
19.105,0.771272,-0.00466487
19.11,0.51702,-0.00569497
19.115,0.295653,-0.0309837
19.12,0.131432,-0.0275001
19.125,0.0229286,-0.00897818
19.13,-0.0436595,-0.00156314
19.135,-0.0823684,0.0238062
19.14,-0.104048,0.0286147
19.145,-0.117003,0.00792981
19.15,-0.125732,-0.0275173
19.155,-0.130891,-0.0288578
19.16,-0.131574,-0.00835397
19.165,-0.128696,0.00351966
19.17,-0.123639,0.00658904
19.175,-0.115995,0.00586892
19.18,-0.105619,0.00252187
19.185,-0.0934798,0.00115798
19.19,-0.0801645,-0.00369637
19.195,-0.0657708,-0.00891125
19.2,-0.0493322,-0.00689695
19.205,-0.0310917,-0.00276418
19.21,-0.0126196,-0.00304826
19.215,0.00635866,-0.00639432
19.22,0.0258589,-0.00673816
19.225,0.045064,-0.00563701
19.23,0.0644512,-0.00669832
19.235,0.0855351,-0.00605372
19.24,0.109049,-0.00712218
19.245,0.133724,-0.0074815
19.25,0.157723,-0.000743541
19.255,0.180763,0.00296698
19.26,0.20311,-0.000152579
19.265,0.223885,-0.00136125
19.27,0.242433,0.00172485
19.275,0.258961,0.000362538
19.28,0.273165,-0.00729616
19.285,0.283362,-0.0058176
19.29,0.288641,-0.00259999
19.295,0.289086,-0.0021592
19.3,0.284926,-0.00306842
19.305,0.275432,-0.00568576
19.31,0.259108,-0.00668521
19.315,0.234749,-0.00423095
19.32,0.202913,-0.000506734
19.325,0.164597,-0.000668691
19.33,0.121719,0.00214352
19.335,0.0788224,-0.00175026
19.34,0.0408084,-0.00429924
19.345,0.00907251,-0.00474531
19.35,-0.0172091,-0.00361966
19.355,-0.0384502,-0.00409908
19.36,-0.0548785,-0.00438608
19.365,-0.0675886,-0.00474784
19.37,-0.0783595,-0.00500065
19.375,-0.0877716,-0.00377892
19.38,-0.0950327,-0.00604817
19.385,-0.100381,-0.00518702
19.39,-0.104496,-0.00499485
19.395,-0.106459,-0.00093471
19.4,-0.10556,0.000812979
19.405,-0.103607,0.00233487
19.41,-0.102806,0.00756949
19.415,-0.102912,-0.00124
19.42,-0.102504,-0.0427305
19.425,-0.101679,0.000547986
19.43,-0.101463,0.00699402
19.435,-0.101851,0.00698225
19.44,-0.101826,0.00330048
19.445,-0.101402,0.0011429
19.45,-0.101208,0.000120283
19.455,-0.10066,-0.0124173
19.46,-0.0988445,-0.00904957
19.465,-0.0967952,-5.94E-05
19.47,-0.095917,-0.00127822
19.475,-0.0956046,-0.00402136
19.48,-0.0948651,-0.00697732
19.485,-0.0940228,-0.00435659
19.49,-0.0942791,-0.00388179
19.495,-0.0950714,-0.00393925
19.5,-0.0950608,-0.0048988
19.505,-0.0948236,-0.00531127
19.51,-0.0955831,-0.00407014
19.515,-0.096668,-0.00247215
19.52,-0.0970073,0.000642183
19.525,-0.0973663,0.000997178
19.53,-0.0994319,-0.00299368
19.535,-0.102734,-0.00469
19.54,-0.105541,-0.00456479
19.545,-0.107876,-0.0060403
19.55,-0.11067,-0.00520232
19.555,-0.113551,-0.00141709
19.56,-0.115318,-0.00160601
19.565,-0.116409,-0.00289128
19.57,-0.118021,-0.00319725
19.575,-0.119939,-0.00422236
19.58,-0.120828,-0.00352109
19.585,-0.120593,-0.00426007
19.59,-0.120775,-0.00178295
19.595,-0.121918,0.000625229
19.6,-0.122695,-0.00223784
19.605,-0.122758,-0.00407581
19.61,-0.12336,-0.00323332
19.615,-0.124478,-0.00219399
19.62,-0.124944,-0.00022739
19.625,-0.124602,0.000633593
19.63,-0.124545,-0.00198887
19.635,-0.124775,-0.00421511
19.64,-0.124198,-0.0075628
19.645,-0.122642,-0.0140795
19.65,-0.120805,-0.0105773
19.655,-0.118361,-0.00253339
19.66,-0.114346,0.00114541
19.665,-0.109755,0.00235563
19.67,-0.106683,-0.000691022
19.675,-0.105204,-0.00121097
19.68,-0.103143,0.00135173
19.685,-0.0994012,-0.00552589
19.69,-0.0944241,-0.0102506
19.695,-0.0887208,-0.00841517
19.7,-0.0816745,-0.00182776
19.705,-0.0739904,-0.000880199
19.71,-0.0677038,-0.00109735
19.715,-0.0627455,-0.00282583
19.72,-0.0577711,0.00049896
19.725,-0.0527188,0.000971849
19.73,-0.0485764,-0.00736153
19.735,-0.0457175,-0.0101549
19.74,-0.0433081,-0.00422005
19.745,-0.0410212,-0.000640931
19.75,-0.039127,0.000612406
19.755,-0.0375583,0.0011949
19.76,-0.0360144,-0.00116478
19.765,-0.0330031,-0.00378659
19.77,-0.0255743,-0.00548388
19.775,-0.0117597,-0.00897548
19.78,0.00645224,-0.00546208
19.785,0.0243253,-0.0017105
19.79,0.0394313,-0.00216361
19.795,0.0544888,-0.00211475
19.8,0.0738968,-0.00292756
19.805,0.0998195,-0.0072148
19.81,0.131487,-0.00801374
19.815,0.165422,-0.0055221
19.82,0.195137,-0.000906243
19.825,0.214798,0.00226515
19.83,0.222771,0.000950251
19.835,0.22049,-0.00270516
19.84,0.208258,-0.00136903
19.845,0.183785,-0.00418307
19.85,0.147008,-0.00466733
19.855,0.103509,-0.00447531
19.86,0.0615378,-0.00296362
19.865,0.0262314,-0.000309155
19.87,-0.00203978,-0.00114776
19.875,-0.0239572,-0.00244906
19.88,-0.0394909,-0.00536398
19.885,-0.0501381,-0.00587072
19.89,-0.0586039,-0.00343554
19.895,-0.0663949,-0.00397814
19.9,-0.0733629,-0.00289338
19.905,-0.0792936,-0.00519279
19.91,-0.0842531,-0.00469307
19.915,-0.0877406,-0.00764334
19.92,-0.0895145,-0.00275397
19.925,-0.0907557,0.00137614
19.93,-0.0923059,-0.00120962
19.935,-0.0932021,-0.000325504
19.94,-0.0911707,-0.00155694
19.945,-0.0874382,-0.00698636
19.95,-0.0882522,-0.00649497
19.955,-0.0979719,-0.00599468
19.96,-0.102633,-0.0018084
19.965,-0.0653692,-0.00462095
19.97,0.0609255,-0.00642889
19.975,0.31623,-0.00416799
19.98,0.681165,-0.00574921
19.985,1.05423,-0.00242766
19.99,1.31616,0.00886704
19.995,1.39927,0.012414
20,1.30542,0.000805648
20.005,1.09239,-0.00576545
20.01,0.838091,-0.000942932
20.015,0.606256,-0.0237307
20.02,0.429159,-0.026755
20.025,0.309068,-0.00435193
20.03,0.232469,0.00135943
20.035,0.18456,0.00575703
20.04,0.154871,0.0149652
20.045,0.135482,0.0042742
20.05,0.120522,-0.00529009
20.055,0.108662,-0.0101908
20.06,0.101503,-0.0124857
20.065,0.0991997,0.00366083
20.07,0.100451,0.0021998
20.075,0.10387,-0.00526613
20.08,0.109521,-0.0060714
20.085,0.117671,0.00404386
20.09,0.127347,-0.000485703
20.095,0.138115,-0.00352236
20.1,0.150259,-0.00732593
20.105,0.163202,-0.00890269
20.11,0.175972,-0.00715568
20.115,0.189307,-0.00515164
20.12,0.204242,-0.00313335
20.125,0.219967,-0.00745091
20.13,0.234956,-0.00517398
20.135,0.249281,-0.00425742
20.14,0.264452,-0.00210341
20.145,0.280574,-0.00154179
20.15,0.297151,-0.00075816
20.155,0.314338,0.000847947
20.16,0.332518,0.000178408
20.165,0.351093,-0.00290649
20.17,0.368114,-0.00425902
20.175,0.382883,-0.00674864
20.18,0.396153,-0.00305356
20.185,0.407273,-0.00336458
20.19,0.415025,-0.00530209
20.195,0.419063,-0.00153168
20.2,0.419456,-0.00528391
20.205,0.41474,-0.00357918
20.21,0.401749,-0.000946508
20.215,0.379008,-0.00310409
20.22,0.348063,-0.0025629
20.225,0.310736,-0.00328161
20.23,0.26848,-0.00365729
20.235,0.225557,0.000475664
20.24,0.186924,-0.00211685
20.245,0.15396,-0.00144911
20.25,0.125783,0.00030311
20.255,0.10229,-0.000885329
20.26,0.0835381,-0.00299192
20.265,0.0681722,-0.00405454
20.27,0.0547843,-0.00836148
20.275,0.0440285,-0.00760555
20.28,0.0363962,-0.00901762
20.285,0.0299922,-0.0100086
20.29,0.0227953,-0.00415715
20.295,0.0149394,-0.00325571
20.3,0.00797573,0.00453105
20.305,0.00190566,-0.001313
20.31,-0.00456834,-0.00313085
20.315,-0.0113498,0.000265747
20.32,-0.0170759,0.00661921
20.325,-0.0217262,-0.0216092
20.33,-0.0262872,-0.0217009
20.335,-0.0303629,0.0125817
20.34,-0.0330502,0.000965009
20.345,-0.0351914,0.0092096
20.35,-0.0382693,0.00596879
20.355,-0.041612,-0.00102202
20.36,-0.0441906,-0.0094693
20.365,-0.0465408,-0.016162
20.37,-0.0492971,-0.00416249
20.375,-0.0516879,0.000376994
20.38,-0.0531047,-0.000391216
20.385,-0.0540939,-0.00195817
20.39,-0.0546576,-0.0073495
20.395,-0.0534982,-0.00748994
20.4,-0.0499748,-0.0036107
20.405,-0.0460969,-0.0027815
20.41,-0.0436047,-0.00277672
20.415,-0.0418423,-0.00138024
20.42,-0.0397912,-0.00123294
20.425,-0.037733,0.00234393
20.43,-0.0370229,-0.0016403
20.435,-0.0375407,-0.0044845
20.44,-0.0379687,-0.00778222
20.445,-0.0383524,-0.00804565
20.45,-0.0400424,-0.00718255
20.455,-0.0435714,-0.00312399
20.46,-0.0483018,-0.00238906
20.465,-0.0540712,-0.00463456
20.47,-0.0612075,-0.00241009
20.475,-0.0688636,-0.00382007
20.48,-0.0755995,0.00219212
20.485,-0.0816028,0.000361569
20.49,-0.0881599,-0.00144683
20.495,-0.0957046,0.000214374
20.5,-0.103592,-0.00452358
20.505,-0.111735,-0.00650878
20.51,-0.120397,-0.00379033
20.515,-0.128081,-0.0040101
20.52,-0.133114,-0.00618465
20.525,-0.136581,-0.00274544
20.53,-0.140396,-0.00216718
20.535,-0.144706,-0.00244805
20.54,-0.148097,0.00105025
20.545,-0.150509,-0.00148431
20.55,-0.153275,-0.00475113
20.555,-0.156407,-0.00482502
20.56,-0.159329,-0.00590724
20.565,-0.162472,-0.00604222
20.57,-0.166099,-0.00484975
20.575,-0.168913,-0.00166933
20.58,-0.169864,0.000219302
20.585,-0.170101,-0.00475632
20.59,-0.171606,-0.00787795
20.595,-0.174691,0.00124435
20.6,-0.177478,0.000656354
20.605,-0.179185,-0.0171248
20.61,-0.18059,0.0117875
20.615,-0.181633,0.00193966
20.62,-0.181629,-0.00602804
20.625,-0.180811,-0.00751216
20.63,-0.180543,-0.00826706
20.635,-0.181378,-0.00743475
20.64,-0.183086,-0.00389865
20.645,-0.186151,0.00213953
20.65,-0.191,-0.000386274
20.655,-0.195968,-0.00273248
20.66,-0.19909,-0.00232831
20.665,-0.201306,-0.00152305
20.67,-0.204496,-0.00447717
20.675,-0.208471,-0.00560615
20.68,-0.212084,-0.00376615
20.685,-0.214954,-0.0034456
20.69,-0.217673,-0.00319293
20.695,-0.220743,-0.00377446
20.7,-0.22317,-0.00416151
20.705,-0.224545,-0.0037584
20.71,-0.225911,-0.00269581
20.715,-0.225847,-0.00329081
20.72,-0.220503,-0.00163643
20.725,-0.209228,0.000299776
20.73,-0.196032,-0.000542006
20.735,-0.184832,-0.00109472
20.74,-0.175081,-0.00299371
20.745,-0.16353,-0.00660202
20.75,-0.147434,-0.00744719
20.755,-0.124745,-0.00584374
20.76,-0.0957825,-0.00642625
20.765,-0.0663862,-0.00391786
20.77,-0.044807,-0.00357553
20.775,-0.0339312,-0.00399162
20.78,-0.0321128,-0.00208779
20.785,-0.0391098,-0.0035265
20.79,-0.0572589,-0.00313769
20.795,-0.0877364,-0.00116945
20.8,-0.128683,-0.000248542
20.805,-0.175206,0.000655452
20.81,-0.221146,-0.00255105
20.815,-0.260682,-0.00455904
20.82,-0.290051,-0.00396176
20.825,-0.30969,-0.00196165
20.83,-0.323185,-0.00412146
20.835,-0.334114,-0.00345454
20.84,-0.343874,-0.00522598
20.845,-0.353029,-0.0042813
20.85,-0.361776,-0.00476514
20.855,-0.369418,-0.00231344
20.86,-0.374953,-0.00315852
20.865,-0.378913,-0.0015512
20.87,-0.38286,-0.00137681
20.875,-0.386638,-0.000868201
20.88,-0.388926,-0.00203909
20.885,-0.38938,-0.00344073
20.89,-0.388568,-0.00441561
20.895,-0.388226,-0.00714931
20.9,-0.393669,-0.00467879
20.905,-0.408086,-0.00310514
20.91,-0.413475,-0.00550375
20.915,-0.368221,-0.00520176
20.92,-0.221968,-0.00438773
20.925,0.0556426,-0.0090301
20.93,0.421289,-0.00906894
20.935,0.765067,-0.000957847
20.94,0.981316,0.0111017
20.945,1.01966,0.0134902
20.95,0.895623,0.00559749
20.955,0.673416,0.00204046
20.96,0.428942,-0.00557506
20.965,0.216582,-0.0334006
20.97,0.058007,-0.0301358
20.975,-0.0481032,-0.00432753
20.98,-0.113516,0.00462604
20.985,-0.153376,0.0116966
20.99,-0.17989,0.0193232
20.995,-0.198662,0.00123418
21,-0.210854,-0.00627442
21.005,-0.21783,-0.0110116
21.01,-0.221418,-0.00895006
21.015,-0.221747,-4.10E-05
21.02,-0.217793,0.0026723
21.025,-0.210194,-0.00354042
21.03,-0.20129,-0.00442075
21.035,-0.192098,0.00148649
21.04,-0.18187,-0.00510346
21.045,-0.170806,-0.00705267
21.05,-0.159999,-0.00940039
21.055,-0.149444,-0.00990174
21.06,-0.138087,-0.00595088
21.065,-0.125273,-0.00398658
21.07,-0.111497,-0.00864195
21.075,-0.0967685,-0.00439346
21.08,-0.0794438,0.00212452
21.085,-0.0593336,-0.00256021
21.09,-0.0380415,-0.00438472
21.095,-0.0152073,-0.00572802
21.1,0.0103909,-0.00209561
21.105,0.0371645,0.00596779
21.11,0.0622427,0.000558347
21.115,0.0854202,0.00365063
21.12,0.107911,0.00236317
21.125,0.129486,-0.00157811
21.13,0.148908,-0.00281114
21.135,0.165709,-0.0120877
21.14,0.179389,-0.0110452
21.145,0.188017,-0.00751941
21.15,0.188234,-0.00377284
21.155,0.178744,-0.00254343
21.16,0.160215,0.00128683
21.165,0.132423,-0.00180204
21.17,0.0955705,-0.00431706
21.175,0.0525992,-0.00563407
21.18,0.00770407,-0.00558855
21.185,-0.036334,-0.00201416
21.19,-0.0782925,-0.00147783
21.195,-0.116077,-0.00215064
21.2,-0.147459,-0.00162384
21.205,-0.172569,-0.00223206
21.21,-0.192806,-0.00132999
21.215,-0.208465,-0.00387914
21.22,-0.219534,-0.00782714
21.225,-0.227354,-0.00624943
21.23,-0.233062,-0.00448099
21.235,-0.236459,-0.00506801
21.24,-0.237516,-0.00407904
21.245,-0.236764,-0.00143314
21.25,-0.235064,-0.00170452
21.255,-0.233232,-0.00148311
21.26,-0.230528,-0.00159654
21.265,-0.22668,0.0100927
21.27,-0.222812,-0.00369492
21.275,-0.219232,-0.0338832
21.28,-0.215283,0.0144672
21.285,-0.211055,-0.000107162
21.29,-0.206836,0.00185304
21.295,-0.202061,-0.0020086
21.3,-0.196389,-0.00381516
21.305,-0.191099,-0.00628234
21.31,-0.187306,-0.00586471
21.315,-0.184429,-0.00606233
21.32,-0.180943,-0.00528293
21.325,-0.176222,-0.00099109
21.33,-0.171516,-0.00200648
21.335,-0.167228,-0.00594466
21.34,-0.162833,-0.0037357
21.345,-0.158295,-0.00145064
21.35,-0.153849,-0.00393426
21.355,-0.149425,-0.00344871
21.36,-0.14452,-0.00109369
21.365,-0.139496,-0.000743555
21.37,-0.135884,-0.00233701
21.375,-0.133749,-0.00312172
21.38,-0.131614,-0.00395836
21.385,-0.128926,-0.00475977
21.39,-0.126198,-0.00566696
21.395,-0.123366,-0.00343985
21.4,-0.1198,-0.00323964
21.405,-0.115984,-0.00686939
21.41,-0.113428,-0.0099349
21.415,-0.112576,-0.00482506
21.42,-0.111917,0.000168142
21.425,-0.110394,0.00287908
21.43,-0.108047,0.00154612
21.435,-0.104477,-0.00197125
21.44,-0.0989624,-0.00435437
21.445,-0.0922247,-0.0030635
21.45,-0.0861955,-0.00501074
21.455,-0.0810664,-0.00356761
21.46,-0.0754008,0.000443255
21.465,-0.0690388,-0.00106247
21.47,-0.0632797,-0.00226868
21.475,-0.0583289,-0.00234312
21.48,-0.0526387,-0.0021014
21.485,-0.0464114,-0.00815138
21.49,-0.0408098,-0.00829147
21.495,-0.0350721,-0.00489409
21.5,-0.027888,-0.00109906
21.505,-0.0198752,-0.00164595
21.51,-0.0138254,-0.00165767
21.515,-0.0107997,-0.00190087
21.52,-0.00898427,-0.00811269
21.525,-0.00711842,-0.00526747
21.53,-0.0057029,7.68E-05
21.535,-0.00515373,-0.00112897
21.54,-0.00461518,-0.00385061
21.545,-0.00353676,-0.000222476
21.55,-0.00320545,-0.00224021
21.555,-0.00450534,-0.00667021
21.56,-0.0060939,-0.00895177
21.565,-0.00753386,-0.00811217
21.57,-0.00977158,-0.00522307
21.575,-0.012155,-0.0020502
21.58,-0.013208,0.00114069
21.585,-0.0133548,0.00286203
21.59,-0.0140454,0.000296732
21.595,-0.0150746,-0.000978786
21.6,-0.0157255,-0.000983097
21.605,-0.0174554,-0.00721478
21.61,-0.0214336,-0.00732396
21.615,-0.0262887,-0.00727048
21.62,-0.0297241,-0.00356226
21.625,-0.0316198,3.56E-05
21.63,-0.0334479,-6.87E-05
21.635,-0.0351724,0.000476037
21.64,-0.0359015,2.75E-05
21.645,-0.0365569,-0.0019734
21.65,-0.0388581,-0.00672423
21.655,-0.0426537,-0.0101128
21.66,-0.0461754,-0.0107704
21.665,-0.0492558,-0.00673132
21.67,-0.0530957,-0.00367211
21.675,-0.0569557,0.00294123
21.68,-0.0575462,-0.00255798
21.685,-0.0520132,0.0014031
21.69,-0.0411497,0.00316614
21.695,-0.0280867,-0.00162172
21.7,-0.0155016,-0.00128403
21.705,-0.00349962,-0.00635067
21.71,0.0104223,-0.0103366
21.715,0.0300248,-0.0108018
21.72,0.0583606,-0.0065217
21.725,0.0940541,-0.000449555
21.73,0.129436,0.000123835
21.735,0.156708,-0.000365011
21.74,0.173945,-0.00227029
21.745,0.181979,0.000515739
21.75,0.180101,-0.00386495
21.755,0.167568,-0.00539913
21.76,0.143999,-0.00526263
21.765,0.109765,-0.00477374
21.77,0.0682555,-0.00182884
21.775,0.0265792,-0.000328624
21.78,-0.00851202,-0.00326465
21.785,-0.0343256,-0.00291927
21.79,-0.0522628,-0.0056741
21.795,-0.0652023,-0.00603542
